time,ecg,hr,rr,marker
1679343239412552802,-0.145,78
1679343239420250096,-0.065
1679343239427947390,0.014
1679343239435644684,0.058
1679343239443341978,0.018000000000000002
1679343239451039272,-0.023
1679343239458736566,-0.023
1679343239466433860,-0.084
1679343239474131154,-0.22
1679343239481828448,-0.28800000000000003
1679343239489525742,-0.26
1679343239497223036,-0.151
1679343239504920330,0.033
1679343239512617624,0.084
1679343239520314918,0.027
1679343239528012212,0.176
1679343239535709506,0.525
1679343239543406800,0.681
1679343239551104094,0.332
1679343239558801388,-0.241
1679343239566498682,-0.45
1679343239574195976,-0.212
1679343239581893270,0.082
1679343239589590564,0.159
1679343239597287858,0.126
1679343239604985152,0.124
1679343239612682446,0.113
1679343239620379740,0.096
1679343239628077034,0.077
1679343239635774328,0.023
1679343239643471622,-0.027
1679343239651168916,-0.05
1679343239658866210,-0.035
1679343239666563504,0.016
1679343239674260798,0.05
1679343239681958092,0.069
1679343239689655386,0.145
1679343239697352680,0.197
1679343239705049974,0.17400000000000002
1679343239712747268,0.185
1679343239720444562,0.246
1679343239728141856,0.292
1679343239735839150,0.34
1679343239743536444,0.37
1679343239751233738,0.378
1679343239758931032,0.429
1679343239766628326,0.452
1679343239774325620,0.397
1679343239782022914,0.35100000000000003
1679343239789720208,0.273
1679343239797417502,0.161
1679343239805114796,0.145
1679343239812812090,0.124
1679343239820509384,0.021
1679343239828206678,-0.025
1679343239835903972,0.0
1679343239843601266,0.004
1679343239851298560,-0.033
1679343239858995854,-0.075
1679343239866693148,-0.069
1679343239874390442,-0.035
1679343239882087736,-0.035
1679343239889785030,-0.039
1679343239897482324,-0.021
1679343239905179618,-0.018000000000000002
1679343239912876912,-0.052000000000000005
1679343239920574206,-0.084
1679343239928271500,-0.113
1679343239935968794,-0.14
1679343239943666088,-0.084
1679343239951363382,0.014
1679343239959060676,0.042
1679343239966757970,0.033
1679343239974455302,0.05
1679343239982152248,0.063
1679343239989849194,0.065
1679343239997546140,0.052000000000000005
1679343240005243086,0.006
1679343240012940032,-0.037
1679343240020636978,-0.031
1679343240028333924,-0.006
1679343240036030870,-0.016
1679343240043727816,-0.046
1679343240051424762,-0.084
1679343240059121708,-0.094
1679343240066818654,-0.029
1679343240074515600,0.01
1679343240082212546,-0.029
1679343240089909492,-0.07100000000000001
1679343240097606438,-0.117
1679343240105303384,-0.17400000000000002
1679343240113000330,-0.17200000000000001
1679343240120697276,-0.128
1679343240128394222,-0.115
1679343240136091168,-0.132
1679343240143788114,-0.153
1679343240151485060,-0.23500000000000001
1679343240159182006,-0.45
1679343240166878952,-0.7020000000000001
1679343240174575898,-0.6920000000000001
1679343240182272844,-0.418
1679343240189969790,-0.393
1679343240197666736,-0.597
1679343240205363682,-0.532
1679343240213060628,-0.40800000000000003
1679343240220757574,-0.47700000000000004
1679343240228454520,-0.34700000000000003
1679343240236151466,0.01
1679343240243848412,0.117,,974
1679343240251545358,0.008
1679343240259242304,0.039
1679343240266939250,0.1
1679343240274636196,0.037
1679343240282333142,0.07100000000000001
1679343240290030088,0.34
1679343240297727034,0.683
1679343240305423980,0.759
1679343240313120926,0.34
1679343240320817872,-0.18
1679343240328514818,-0.231
1679343240336211764,0.025
1679343240343908710,0.136
1679343240351605656,0.122
1679343240359302602,0.14
1679343240366999548,0.153
1679343240374696494,0.14300000000000002
1679343240382393440,0.164
1679343240390090386,0.195
1679343240397787332,0.197
1679343240405484278,0.201
1679343240413181224,0.218
1679343240420878170,0.20800000000000002
1679343240428575116,0.197
1679343240436272062,0.23900000000000002
1679343240443969008,0.28800000000000003
1679343240451665954,0.3
1679343240459362900,0.298
1679343240467059846,0.302
1679343240474756792,0.33
1679343240482453738,0.37
1679343240490150684,0.399
1679343240497847630,0.41200000000000003
1679343240505544576,0.429
1679343240513241522,0.439
1679343240520938468,0.433
1679343240528635414,0.439
1679343240536332376,0.454,78
1679343240544029600,0.441
1679343240551726824,0.406
1679343240559424048,0.378
1679343240567121272,0.357
1679343240574818496,0.321
1679343240582515720,0.256
1679343240590212944,0.17
1679343240597910168,0.082
1679343240605607392,0.008
1679343240613304616,-0.039
1679343240621001840,-0.046
1679343240628699064,-0.031
1679343240636396288,-0.039
1679343240644093512,-0.054
1679343240651790736,-0.056
1679343240659487960,-0.1
1679343240667185184,-0.17200000000000001
1679343240674882408,-0.17
1679343240682579632,-0.134
1679343240690276856,-0.14300000000000002
1679343240697974080,-0.155
1679343240705671304,-0.13
1679343240713368528,-0.098
1679343240721065752,-0.08600000000000001
1679343240728762976,-0.084
1679343240736460200,-0.082
1679343240744157424,-0.094
1679343240751854648,-0.11900000000000001
1679343240759551872,-0.134
1679343240767249096,-0.149
1679343240774946320,-0.17
1679343240782643544,-0.185
1679343240790340768,-0.195
1679343240798037992,-0.189
1679343240805735216,-0.161
1679343240813432440,-0.149
1679343240821129664,-0.159
1679343240828826888,-0.176
1679343240836524112,-0.20400000000000001
1679343240844221336,-0.23700000000000002
1679343240851918560,-0.241
1679343240859615784,-0.212
1679343240867313008,-0.193
1679343240875010232,-0.20400000000000001
1679343240882707456,-0.201
1679343240890404680,-0.164
1679343240898101904,-0.136
1679343240905799128,-0.134
1679343240913496352,-0.128
1679343240921193576,-0.107
1679343240928890800,-0.08600000000000001
1679343240936588024,-0.07100000000000001
1679343240944285248,-0.044
1679343240951982472,0.0
1679343240959679696,0.031
1679343240967376920,0.027
1679343240975074144,0.023
1679343240982771368,0.037
1679343240990468592,0.042
1679343240998165816,0.039
1679343241005863040,0.054
1679343241013560264,0.067,,768
1679343241021257488,0.069
1679343241028954712,0.077
1679343241036651936,0.094
1679343241044349160,0.098
1679343241052046384,0.10300000000000001
1679343241059743608,0.195
1679343241067440832,0.46
1679343241075138056,0.738
1679343241082835280,0.635
1679343241090532504,0.094
1679343241098229792,-0.296
1679343241105926877,-0.20400000000000001
1679343241113623962,0.0
1679343241121321047,0.067
1679343241129018132,0.109
1679343241136715217,0.151
1679343241144412302,0.147
1679343241152109387,0.11900000000000001
1679343241159806472,0.08600000000000001
1679343241167503557,0.027
1679343241175200642,-0.025
1679343241182897727,-0.052000000000000005
1679343241190594812,-0.05
1679343241198291897,-0.039
1679343241205988982,-0.039
1679343241213686067,-0.027
1679343241221383152,0.006
1679343241229080237,0.037
1679343241236777322,0.052000000000000005
1679343241244474407,0.065
1679343241252171492,0.09
1679343241259868577,0.124
1679343241267565662,0.151
1679343241275262747,0.176
1679343241282959832,0.20800000000000002
1679343241290656917,0.218
1679343241298354002,0.216
1679343241306051087,0.233
1679343241313748172,0.262
1679343241321445257,0.273
1679343241329142342,0.23700000000000002
1679343241336839427,0.176
1679343241344536512,0.14300000000000002
1679343241352233597,0.132
1679343241359930682,0.122
1679343241367627767,0.13
1679343241375324852,0.136
1679343241383021937,0.122
1679343241390719022,0.111
1679343241398416107,0.138
1679343241406113192,0.17
1679343241413810277,0.185
1679343241421507362,0.189
1679343241429204447,0.197
1679343241436901532,0.212
1679343241444598617,0.214
1679343241452295702,0.20600000000000002
1679343241459992787,0.22
1679343241467689872,0.252
1679343241475386957,0.252
1679343241483084042,0.23900000000000002
1679343241490781127,0.258
1679343241498478212,0.281
1679343241506175297,0.279
1679343241513872382,0.265
1679343241521569467,0.248
1679343241529266552,0.23900000000000002
1679343241536963637,0.23900000000000002
1679343241544660722,0.23500000000000001
1679343241552357807,0.218
1679343241560054892,0.185
1679343241567751977,0.149
1679343241575449062,0.122
1679343241583146147,0.094
1679343241590843232,0.092
1679343241598540317,0.1
1679343241606237402,0.08600000000000001
1679343241613934487,0.073
1679343241621631572,0.079
1679343241629328657,0.075
1679343241637025742,0.067
1679343241644722827,0.09
1679343241652419912,0.113
1679343241660117034,0.094,78
1679343241667814119,0.042
1679343241675511204,-0.008
1679343241683208289,-0.021
1679343241690905374,-0.006
1679343241698602459,0.008
1679343241706299544,0.006
1679343241713996629,-0.035
1679343241721693714,-0.111
1679343241729390799,-0.14
1679343241737087884,-0.13
1679343241744784969,-0.164,,735
1679343241752482054,-0.197
1679343241760179139,-0.187
1679343241767876224,-0.187
1679343241775573309,-0.20600000000000002
1679343241783270394,-0.21
1679343241790967479,-0.199
1679343241798664564,-0.201
1679343241806361649,-0.212
1679343241814058734,-0.218
1679343241821755819,-0.233
1679343241829452904,-0.267
1679343241837149989,-0.302
1679343241844847074,-0.294
1679343241852544159,-0.128
1679343241860241244,0.195
1679343241867938329,0.382
1679343241875635414,0.11900000000000001
1679343241883332499,-0.384
1679343241891029584,-0.589
1679343241898726669,-0.431
1679343241906423754,-0.25
1679343241914120839,-0.166
1679343241921817924,-0.122
1679343241929515009,-0.117
1679343241937212094,-0.128
1679343241944909179,-0.107
1679343241952606264,-0.084
1679343241960303349,-0.07100000000000001
1679343241968000434,-0.033
1679343241975697519,0.01
1679343241983394604,0.023
1679343241991091689,0.027
1679343241998788774,0.044
1679343242006485859,0.056
1679343242014182944,0.069
1679343242021880029,0.084
1679343242029577114,0.098
1679343242037274199,0.128
1679343242044971284,0.161
1679343242052668369,0.189
1679343242060365454,0.222
1679343242068062539,0.225
1679343242075759624,0.189
1679343242083456709,0.183
1679343242091153794,0.216
1679343242098850879,0.23700000000000002
1679343242106547964,0.241
1679343242114245049,0.23500000000000001
1679343242121942134,0.191
1679343242129639219,0.145
1679343242137336304,0.138
1679343242145033389,0.164
1679343242152730474,0.191
1679343242160427559,0.201
1679343242168124644,0.168
1679343242175821729,0.098
1679343242183518814,0.056
1679343242191215899,0.065
1679343242198912984,0.065
1679343242206610069,0.067
1679343242214307154,0.088
1679343242222004278,0.098
1679343242229701154,0.098
1679343242237398030,0.107
1679343242245094906,0.134
1679343242252791782,0.151
1679343242260488658,0.134
1679343242268185534,0.122
1679343242275882410,0.147
1679343242283579286,0.145
1679343242291276162,0.094
1679343242298973038,0.075
1679343242306669914,0.084
1679343242314366790,0.048
1679343242322063666,-0.004
1679343242329760542,-0.014
1679343242337457418,0.0
1679343242345154294,-0.01
1679343242352851170,-0.039
1679343242360548046,-0.035
1679343242368244922,-0.012
1679343242375941798,-0.018000000000000002
1679343242383638674,-0.031
1679343242391335550,-0.004
1679343242399032426,0.023
1679343242406729302,0.016
1679343242414426178,-0.004
1679343242422123054,-0.063
1679343242429819930,-0.098
1679343242437516806,-0.033
1679343242445213682,-0.012
1679343242452910558,-0.048
1679343242460607434,-0.021
1679343242468304310,0.029
1679343242476001186,0.044
1679343242483698062,0.033,,739
1679343242491394938,0.021
1679343242499091814,0.025
1679343242506788690,0.014
1679343242514485566,-0.027
1679343242522182442,-0.048
1679343242529879318,-0.067
1679343242537576194,-0.10300000000000001
1679343242545273070,-0.094
1679343242552969946,-0.061
1679343242560666822,-0.073
1679343242568363698,-0.082
1679343242576060574,-0.054
1679343242583757450,-0.061
1679343242591454326,-0.069
1679343242599151202,0.046
1679343242606848078,0.336
1679343242614544954,0.675
1679343242622241830,0.6900000000000001
1679343242629938706,0.151
1679343242637635582,-0.387
1679343242645332458,-0.34
1679343242653029334,-0.054
1679343242660726210,0.061
1679343242668423086,0.107
1679343242676119962,0.134
1679343242683816838,0.077
1679343242691513714,0.014
1679343242699210590,0.033
1679343242706907466,0.052000000000000005
1679343242714604342,0.023
1679343242722301218,-0.016
1679343242729998094,-0.044
1679343242737694970,-0.044
1679343242745391846,-0.033
1679343242753088722,0.002
1679343242760785598,0.077
1679343242768482474,0.115
1679343242776179350,0.115
1679343242783876262,0.151,79
1679343242791573556,0.136
1679343242799270850,0.061
1679343242806968144,0.132
1679343242814665438,0.246
1679343242822362732,0.176
1679343242830060026,0.08600000000000001
1679343242837757320,0.094
1679343242845454614,0.113
1679343242853151908,0.126
1679343242860849202,0.14300000000000002
1679343242868546496,0.147
1679343242876243790,0.14
1679343242883941084,0.11900000000000001
1679343242891638378,0.092
1679343242899335672,0.073
1679343242907032966,0.05
1679343242914730260,0.027
1679343242922427554,0.033
1679343242930124848,0.046
1679343242937822142,0.004
1679343242945519436,-0.048
1679343242953216730,-0.016
1679343242960914024,0.031
1679343242968611318,0.039
1679343242976308612,0.058
1679343242984005906,0.067
1679343242991703200,0.037
1679343242999400494,0.033
1679343243007097788,0.084
1679343243014795082,0.105
1679343243022492376,0.088
1679343243030189670,0.109
1679343243037886964,0.117
1679343243045584258,0.073
1679343243053281552,0.021
1679343243060978846,-0.029
1679343243068676140,-0.07100000000000001
1679343243076373434,-0.117
1679343243084070728,-0.161
1679343243091768022,-0.1
1679343243099465316,0.01
1679343243107162610,-0.004
1679343243114859904,-0.084
1679343243122557198,-0.084
1679343243130254492,-0.14
1679343243137951786,-0.374
1679343243145649080,-0.359
1679343243153346374,0.035
1679343243161043668,0.20400000000000001
1679343243168740962,0.075
1679343243176438256,0.077
1679343243184135550,0.098
1679343243191832844,0.018000000000000002
1679343243199530138,0.023
1679343243207227432,0.058
1679343243214924726,0.031
1679343243222622020,-0.012
1679343243230319314,-0.05
1679343243238016608,-0.075
1679343243245713902,-0.1,,761
1679343243253411196,-0.128
1679343243261108490,-0.126
1679343243268805784,-0.115
1679343243276503078,-0.138
1679343243284200372,-0.17
1679343243291897666,-0.124
1679343243299594960,0.07100000000000001
1679343243307292254,0.374
1679343243314989548,0.546
1679343243322686842,0.199
1679343243330384136,-0.485
1679343243338081430,-0.738
1679343243345778764,-0.456,79
1679343243353475640,-0.22
1679343243361172516,-0.17
1679343243368869392,-0.111
1679343243376566268,-0.029
1679343243384263144,0.031
1679343243391960020,0.016
1679343243399656896,-0.084
1679343243407353772,-0.128
1679343243415050648,-0.069
1679343243422747524,-0.012
1679343243430444400,0.027
1679343243438141276,0.096
1679343243445838152,0.122
1679343243453535028,0.077
1679343243461231904,0.073
1679343243468928780,0.126
1679343243476625656,0.161
1679343243484322532,0.176
1679343243492019408,0.166
1679343243499716284,0.094
1679343243507413160,0.037
1679343243515110036,0.073
1679343243522806912,0.111
1679343243530503788,0.115
1679343243538200664,0.14300000000000002
1679343243545897540,0.13
1679343243553594416,0.082
1679343243561291292,0.07100000000000001
1679343243568988168,0.065
1679343243576685044,0.031
1679343243584381920,0.014
1679343243592078796,0.008
1679343243599775672,-0.021
1679343243607472548,-0.042
1679343243615169424,-0.035
1679343243622866300,-0.012
1679343243630563176,0.012
1679343243638260052,0.021
1679343243645956928,0.014
1679343243653653804,0.033
1679343243661350680,0.073
1679343243669047556,0.088
1679343243676744432,0.094
1679343243684441308,0.1
1679343243692138184,0.05
1679343243699835060,-0.018000000000000002
1679343243707531936,-0.006
1679343243715228812,0.037
1679343243722925688,0.037
1679343243730622564,0.027
1679343243738319440,0.037
1679343243746016316,0.052000000000000005
1679343243753713192,0.061
1679343243761410068,0.065
1679343243769106944,0.08600000000000001
1679343243776803820,0.113
1679343243784500696,0.111
1679343243792197572,0.07100000000000001
1679343243799894448,0.027
1679343243807591324,0.01
1679343243815288200,0.01
1679343243822985076,0.0
1679343243830681952,0.0
1679343243838378828,0.012
1679343243846075704,0.012
1679343243853772580,0.018000000000000002
1679343243861469456,0.052000000000000005
1679343243869166332,0.079
1679343243876863208,0.069
1679343243884560084,0.056
1679343243892256960,0.065
1679343243899953836,0.073
1679343243907650750,0.069
1679343243915347765,0.067
1679343243923044780,0.07100000000000001
1679343243930741795,0.075
1679343243938438810,0.088
1679343243946135825,0.107
1679343243953832840,0.113
1679343243961529855,0.079
1679343243969226870,0.07100000000000001
1679343243976923885,0.191
1679343243984620900,0.448
1679343243992317915,0.66
1679343244000014930,0.321
1679343244007711945,-0.441
1679343244015408960,-0.673
1679343244023105975,-0.34700000000000003,,774
1679343244030802990,-0.178
1679343244038500005,-0.20600000000000002
1679343244046197020,-0.178
1679343244053894035,-0.157
1679343244061591050,-0.18
1679343244069288065,-0.17
1679343244076985080,-0.132
1679343244084682095,-0.122
1679343244092379110,-0.113
1679343244100076125,-0.08600000000000001
1679343244107773140,-0.07100000000000001
1679343244115470155,-0.07100000000000001
1679343244123167170,-0.048
1679343244130864185,-0.006
1679343244138561200,0.025
1679343244146258215,0.039
1679343244153955230,0.014
1679343244161652245,-0.195
1679343244169349260,-0.40800000000000003
1679343244177046275,-0.117
1679343244184743290,0.29
1679343244192440305,0.214
1679343244200137320,0.063
1679343244207834335,0.124
1679343244215531350,0.138
1679343244223228365,0.105
1679343244230925380,0.134
1679343244238622395,0.138
1679343244246319410,0.088
1679343244254016425,0.073
1679343244261713440,0.082
1679343244269410455,0.065
1679343244277107470,0.05
1679343244284804485,0.027
1679343244292501500,-0.025
1679343244300198515,-0.044
1679343244307895530,-0.018000000000000002
1679343244315592545,0.002
1679343244323289560,0.014
1679343244330986575,0.021
1679343244338683590,0.025
1679343244346380605,0.048
1679343244354077620,0.073
1679343244361774635,0.079
1679343244369471650,0.1
1679343244377168665,0.138
1679343244384865680,0.136
1679343244392562695,0.126
1679343244400259710,0.155
1679343244407956725,0.187
1679343244415653740,0.189
1679343244423350755,0.187
1679343244431047770,0.18
1679343244438744785,0.17200000000000001
1679343244446441800,0.176
1679343244454138815,0.161
1679343244461835830,0.153
1679343244469532906,0.20600000000000002,79
1679343244477230061,0.256
1679343244484927216,0.231
1679343244492624371,0.151
1679343244500321526,0.14300000000000002
1679343244508018681,0.281
1679343244515715836,0.34900000000000003
1679343244523412991,0.275
1679343244531110146,0.23500000000000001
1679343244538807301,0.197
1679343244546504456,0.145
1679343244554201611,0.147
1679343244561898766,0.126
1679343244569595921,0.05
1679343244577293076,0.023
1679343244584990231,0.044
1679343244592687386,0.042
1679343244600384541,0.027
1679343244608081696,0.035
1679343244615778851,0.046
1679343244623476006,0.035
1679343244631173161,0.029
1679343244638870316,0.023
1679343244646567471,0.052000000000000005
1679343244654264626,0.227
1679343244661961781,0.555
1679343244669658936,0.765
1679343244677356091,0.485
1679343244685053246,-0.113
1679343244692750401,-0.376
1679343244700447556,-0.218
1679343244708144711,-0.09
1679343244715841866,-0.09
1679343244723539021,-0.08600000000000001
1679343244731236176,-0.073
1679343244738933331,-0.073
1679343244746630486,-0.109
1679343244754327641,-0.151
1679343244762024796,-0.153
1679343244769721951,-0.23700000000000002
1679343244777419106,-0.28600000000000003
1679343244785116261,-0.10300000000000001
1679343244792813416,-0.012
1679343244800510571,-0.096
1679343244808207726,-0.09
1679343244815904881,-0.039,,790
1679343244823602036,-0.035
1679343244831299191,-0.037
1679343244838996346,-0.082
1679343244846693501,-0.122
1679343244854390656,-0.122
1679343244862087811,-0.212
1679343244869784966,-0.302
1679343244877482121,-0.28300000000000003
1679343244885179276,-0.29
1679343244892876431,-0.309
1679343244900573586,-0.26
1679343244908270741,-0.189
1679343244915967896,-0.098
1679343244923665051,0.021
1679343244931362206,0.13
1679343244939059361,0.199
1679343244946756516,0.218
1679343244954453671,0.189
1679343244962150826,0.17
1679343244969847981,0.178
1679343244977545136,0.183
1679343244985242291,0.168
1679343244992939446,0.159
1679343245000636601,0.178
1679343245008333756,0.20400000000000001
1679343245016030911,0.212
1679343245023728066,0.193
1679343245031425236,0.166
1679343245039122391,0.161
1679343245046819546,0.168
1679343245054516701,0.17
1679343245062213856,0.185
1679343245069911011,0.191
1679343245077608166,0.136
1679343245085305321,0.075
1679343245093002476,0.088
1679343245100699631,0.117
1679343245108396786,0.107
1679343245116093941,0.10300000000000001
1679343245123791096,0.113
1679343245131488251,0.111
1679343245139185406,0.111
1679343245146882561,0.128
1679343245154579716,0.151
1679343245162276871,0.159
1679343245169974026,0.155
1679343245177671181,0.159
1679343245185368336,0.178
1679343245193065491,0.191
1679343245200762646,0.17
1679343245208459801,0.109
1679343245216156956,0.048
1679343245223854111,0.037
1679343245231551266,0.054
1679343245239248421,0.073
1679343245246945576,0.10300000000000001
1679343245254642731,0.122
1679343245262339886,0.096
1679343245270037041,0.054
1679343245277734196,0.027
1679343245285431351,0.01
1679343245293128506,0.014
1679343245300825661,0.029
1679343245308522816,0.025
1679343245316219971,0.014
1679343245323917126,0.027
1679343245331614281,0.023
1679343245339311436,-0.008
1679343245347008591,0.05
1679343245354705746,0.3
1679343245362402901,0.603
1679343245370100056,0.578
1679343245377797211,0.082
1679343245385494366,-0.357
1679343245393191521,-0.302
1679343245400888676,-0.075
1679343245408585831,0.004
1679343245416282986,0.035
1679343245423980141,0.082
1679343245431677296,0.096
1679343245439374451,0.092
1679343245447071606,0.098
1679343245454768761,0.11900000000000001
1679343245462465916,0.134
1679343245470163071,0.14300000000000002
1679343245477860226,0.164
1679343245485557381,0.189
1679343245493254536,0.18
1679343245500951691,0.147
1679343245508648846,0.13
1679343245516346001,0.098
1679343245524043156,0.031
1679343245531740311,0.008
1679343245539437466,0.035
1679343245547134621,0.048
1679343245554831776,0.046
1679343245562528931,0.052000000000000005,,751
1679343245570226086,0.073
1679343245577923241,0.092
1679343245585620396,0.084
1679343245593317564,0.069,79
1679343245601014510,0.077
1679343245608711456,0.08600000000000001
1679343245616408402,0.065
1679343245624105348,0.039
1679343245631802294,0.016
1679343245639499240,-0.021
1679343245647196186,-0.082
1679343245654893132,-0.124
1679343245662590078,-0.113
1679343245670287024,-0.107
1679343245677983970,-0.14
1679343245685680916,-0.147
1679343245693377862,-0.10300000000000001
1679343245701074808,-0.082
1679343245708771754,-0.109
1679343245716468700,-0.155
1679343245724165646,-0.176
1679343245731862592,-0.159
1679343245739559538,-0.147
1679343245747256484,-0.132
1679343245754953430,-0.107
1679343245762650376,-0.128
1679343245770347322,-0.176
1679343245778044268,-0.17
1679343245785741214,-0.134
1679343245793438160,-0.124
1679343245801135106,-0.109
1679343245808832052,-0.09
1679343245816528998,-0.084
1679343245824225944,-0.08600000000000001
1679343245831922890,-0.07100000000000001
1679343245839619836,-0.048
1679343245847316782,-0.023
1679343245855013728,-0.014
1679343245862710674,-0.021
1679343245870407620,-0.01
1679343245878104566,0.014
1679343245885801512,0.027
1679343245893498458,0.035
1679343245901195404,0.052000000000000005
1679343245908892350,0.058
1679343245916589296,0.061
1679343245924286242,0.09
1679343245931983188,0.128
1679343245939680134,0.166
1679343245947377080,0.187
1679343245955074026,0.159
1679343245962770972,0.145
1679343245970467918,0.17200000000000001
1679343245978164864,0.178
1679343245985861810,0.166
1679343245993558756,0.185
1679343246001255702,0.193
1679343246008952648,0.168
1679343246016649594,0.161
1679343246024346540,0.166
1679343246032043486,0.161
1679343246039740432,0.25
1679343246047437378,0.45
1679343246055134324,0.454
1679343246062831270,0.124
1679343246070528216,-0.183
1679343246078225162,-0.151
1679343246085922108,0.05
1679343246093619054,0.128
1679343246101316000,0.189
1679343246109012946,0.292
1679343246116709892,0.298
1679343246124406838,0.241
1679343246132103784,0.229
1679343246139800730,0.25
1679343246147497676,0.23900000000000002
1679343246155194634,0.225
1679343246162891580,0.233
1679343246170588526,0.241
1679343246178285472,0.23700000000000002
1679343246185982418,0.191
1679343246193679364,0.126
1679343246201376310,0.13
1679343246209073256,0.138
1679343246216770202,0.002
1679343246224467148,-0.1
1679343246232164094,0.054
1679343246239861040,0.178
1679343246247557986,0.09
1679343246255254932,0.063
1679343246262951878,0.14,,696
1679343246270648824,0.145
1679343246278345770,0.094
1679343246286042716,0.077
1679343246293739662,0.075
1679343246301436608,0.042
1679343246309133554,-0.018000000000000002
1679343246316830500,-0.067
1679343246324527446,-0.10300000000000001
1679343246332224392,-0.147
1679343246339921338,-0.18
1679343246347618284,-0.18
1679343246355315230,-0.17200000000000001
1679343246363012176,-0.189
1679343246370709122,-0.20800000000000002
1679343246378406068,-0.20400000000000001
1679343246386103014,-0.187
1679343246393799960,-0.17200000000000001
1679343246401496906,-0.149
1679343246409193852,-0.124
1679343246416890798,-0.122
1679343246424587744,-0.11900000000000001
1679343246432284690,-0.09
1679343246439981636,-0.056
1679343246447678582,-0.042
1679343246455375528,-0.027
1679343246463072474,-0.016
1679343246470769420,-0.008
1679343246478466366,0.01
1679343246486163312,0.029
1679343246493860258,0.01
1679343246501557204,-0.023
1679343246509254150,-0.042
1679343246516951096,-0.07100000000000001
1679343246524648042,-0.124
1679343246532344988,-0.23500000000000001
1679343246540041934,-0.443
1679343246547738880,-0.5630000000000001
1679343246555435826,-0.47900000000000004
1679343246563132772,-0.393
1679343246570829718,-0.389
1679343246578526664,-0.258
1679343246586223610,0.058
1679343246593920556,0.273
1679343246601617502,0.248
1679343246609314448,0.218
1679343246617011394,0.265
1679343246624708340,0.231
1679343246632405286,0.185
1679343246640102232,0.20800000000000002
1679343246647799178,0.20400000000000001
1679343246655496124,0.222
1679343246663193070,0.267
1679343246670890016,0.252
1679343246678586962,0.25
1679343246686283908,0.269
1679343246693980854,0.248
1679343246701677800,0.22
1679343246709374746,0.302
1679343246717071706,0.54,80
1679343246724769000,0.778
1679343246732466294,0.7000000000000001
1679343246740163588,0.14
1679343246747860882,-0.49
1679343246755558176,-0.647
1679343246763255470,-0.439
1679343246770952764,-0.227
1679343246778650058,-0.11900000000000001
1679343246786347352,-0.09
1679343246794044646,-0.07100000000000001
1679343246801741940,-0.027
1679343246809439234,0.023
1679343246817136528,0.044
1679343246824833822,0.052000000000000005
1679343246832531116,0.067
1679343246840228410,0.077
1679343246847925704,0.084
1679343246855622998,0.105
1679343246863320292,0.138
1679343246871017586,0.136
1679343246878714880,0.1
1679343246886412174,0.09
1679343246894109468,0.124
1679343246901806762,0.147
1679343246909504056,0.161
1679343246917201350,0.199
1679343246924898644,0.225
1679343246932595938,0.214
1679343246940293232,0.20600000000000002,,678
1679343246947990526,0.222
1679343246955687820,0.258
1679343246963385114,0.269
1679343246971082408,0.231
1679343246978779702,0.199
1679343246986476996,0.195
1679343246994174290,0.161
1679343247001871584,0.10300000000000001
1679343247009568878,0.082
1679343247017266172,0.069
1679343247024963466,0.048
1679343247032660760,0.044
1679343247040358054,0.029
1679343247048055348,0.006
1679343247055752642,-0.016
1679343247063449936,-0.054
1679343247071147230,-0.082
1679343247078844524,-0.069
1679343247086541818,-0.05
1679343247094239112,-0.046
1679343247101936406,-0.052000000000000005
1679343247109633700,-0.058
1679343247117330994,-0.063
1679343247125028288,-0.05
1679343247132725582,-0.025
1679343247140422876,-0.012
1679343247148120170,-0.012
1679343247155817464,-0.004
1679343247163514758,0.006
1679343247171212052,0.01
1679343247178909346,0.004
1679343247186606640,0.004
1679343247194303934,0.029
1679343247202001228,0.048
1679343247209698522,0.027
1679343247217395816,0.023
1679343247225093110,0.033
1679343247232790404,-0.002
1679343247240487698,-0.035
1679343247248184992,-0.016
1679343247255882286,0.002
1679343247263579580,0.0
1679343247271276874,0.012
1679343247278974210,0.023,81
1679343247286671086,0.006
1679343247294367962,-0.018000000000000002
1679343247302064838,-0.016
1679343247309761714,0.008
1679343247317458590,0.027
1679343247325155466,0.023
1679343247332852342,0.016
1679343247340549218,0.031
1679343247348246094,0.046
1679343247355942970,-0.008
1679343247363639846,-0.027
1679343247371336722,0.218
1679343247379033598,0.61
1679343247386730474,0.673
1679343247394427350,0.183
1679343247402124226,-0.355
1679343247409821102,-0.391
1679343247417517978,-0.145
1679343247425214854,-0.01
1679343247432911730,0.031
1679343247440608606,0.067
1679343247448305482,0.092
1679343247456002358,0.109
1679343247463699234,0.134
1679343247471396110,0.161
1679343247479092986,0.17400000000000002
1679343247486789862,0.157
1679343247494486738,0.14
1679343247502183614,0.145
1679343247509880490,0.153
1679343247517577366,0.176
1679343247525274242,0.201
1679343247532971118,0.195
1679343247540667994,0.193
1679343247548364870,0.233
1679343247556061746,0.28600000000000003
1679343247563758622,0.3
1679343247571455498,0.277
1679343247579152374,0.254
1679343247586849250,0.275
1679343247594546126,0.29
1679343247602243002,0.271
1679343247609939878,0.265
1679343247617636754,0.275,,678
1679343247625333630,0.258
1679343247633030506,0.225
1679343247640727382,0.21
1679343247648424258,0.199
1679343247656121134,0.168
1679343247663818010,0.132
1679343247671514886,0.122
1679343247679211762,0.128
1679343247686908638,0.117
1679343247694605514,0.1
1679343247702302390,0.117
1679343247709999266,0.138
1679343247717696142,0.128
1679343247725393018,0.126
1679343247733089894,0.10300000000000001
1679343247740786770,0.004
1679343247748483646,-0.07100000000000001
1679343247756180522,-0.096
1679343247763877398,-0.11900000000000001
1679343247771574274,-0.111
1679343247779271150,-0.092
1679343247786968026,-0.107
1679343247794664902,-0.109
1679343247802361778,-0.109
1679343247810058654,-0.126
1679343247817755530,-0.113
1679343247825452406,-0.09
1679343247833149282,-0.10300000000000001
1679343247840846194,-0.113
1679343247848543279,-0.098
1679343247856240364,-0.08600000000000001
1679343247863937449,-0.084
1679343247871634534,-0.07100000000000001
1679343247879331619,-0.035
1679343247887028704,-0.01
1679343247894725789,-0.05
1679343247902422874,-0.115
1679343247910119959,-0.111
1679343247917817044,-0.052000000000000005
1679343247925514129,-0.044
1679343247933211214,-0.084
1679343247940908299,-0.09
1679343247948605384,-0.065
1679343247956302469,-0.058
1679343247963999554,-0.065
1679343247971696639,-0.048
1679343247979393724,-0.061
1679343247987090809,-0.113
1679343247994787894,-0.117
1679343248002484979,-0.094
1679343248010182064,-0.09
1679343248017879149,0.042
1679343248025576234,0.23900000000000002
1679343248033273319,0.376
1679343248040970404,0.42
1679343248048667489,0.054
1679343248056364574,-0.374
1679343248064061659,-0.218
1679343248071758744,0.065
1679343248079455829,0.046
1679343248087152914,0.042
1679343248094849999,0.14300000000000002
1679343248102547084,0.168
1679343248110244169,0.155
1679343248117941254,0.187
1679343248125638339,0.197
1679343248133335424,0.191
1679343248141032509,0.214
1679343248148729594,0.241
1679343248156426679,0.256
1679343248164123764,0.269
1679343248171820849,0.271
1679343248179517934,0.28600000000000003
1679343248187215019,0.319
1679343248194912104,0.334
1679343248202609189,0.332
1679343248210306274,0.363
1679343248218003359,0.389
1679343248225700444,0.361
1679343248233397529,0.323
1679343248241094614,0.273
1679343248248791699,0.183
1679343248256488784,0.115
1679343248264185869,0.096
1679343248271882954,0.08600000000000001
1679343248279580039,0.077
1679343248287277124,0.069
1679343248294974209,0.065
1679343248302671294,0.048
1679343248310368379,0.008,,696
1679343248318065464,-0.012
1679343248325762549,-0.004
1679343248333459634,-0.008
1679343248341156719,-0.092
1679343248348853804,-0.189
1679343248356550889,-0.088
1679343248364247974,0.058
1679343248371945059,0.006
1679343248379642144,-0.035
1679343248387339229,0.025
1679343248395036314,0.039
1679343248402733436,0.025,82
1679343248410430521,0.012
1679343248418127606,-0.012
1679343248425824691,-0.021
1679343248433521776,-0.035
1679343248441218861,-0.079
1679343248448915946,-0.11900000000000001
1679343248456613031,-0.132
1679343248464310116,-0.098
1679343248472007201,-0.058
1679343248479704286,-0.027
1679343248487401371,0.008
1679343248495098456,-0.012
1679343248502795541,-0.075
1679343248510492626,-0.067
1679343248518189711,-0.031
1679343248525886796,-0.052000000000000005
1679343248533583881,-0.126
1679343248541280966,-0.18
1679343248548978051,-0.117
1679343248556675136,0.012
1679343248564372221,0.065
1679343248572069306,0.054
1679343248579766391,0.056
1679343248587463476,0.027
1679343248595160561,-0.033
1679343248602857646,-0.052000000000000005
1679343248610554731,-0.016
1679343248618251816,0.056
1679343248625948901,0.14300000000000002
1679343248633645986,0.183
1679343248641343071,0.17400000000000002
1679343248649040156,0.13
1679343248656737241,0.07100000000000001
1679343248664434326,0.122
1679343248672131411,0.28300000000000003
1679343248679828496,0.5650000000000001
1679343248687525581,0.9
1679343248695222666,0.708
1679343248702919751,-0.023
1679343248710616836,-0.403
1679343248718313921,-0.258
1679343248726011006,-0.122
1679343248733708091,-0.031
1679343248741405176,0.13
1679343248749102261,0.115
1679343248756799346,-0.11900000000000001
1679343248764496431,-0.443
1679343248772193516,-0.738
1679343248779890601,-0.729
1679343248787587686,-0.536
1679343248795284771,-0.294
1679343248802981856,0.084
1679343248810678941,0.227
1679343248818376026,0.058
1679343248826073111,0.042
1679343248833770196,0.14
1679343248841467281,0.11900000000000001
1679343248849164366,0.063
1679343248856861451,0.079
1679343248864558536,0.159
1679343248872255621,0.20600000000000002
1679343248879952706,0.199
1679343248887649791,0.212
1679343248895346876,0.248
1679343248903043961,0.275
1679343248910741046,0.273
1679343248918438131,0.25
1679343248926135216,0.22
1679343248933832301,0.193
1679343248941529386,0.17400000000000002
1679343248949226471,0.138
1679343248956923556,0.079
1679343248964620680,0.025
1679343248972317974,-0.021
1679343248980015268,-0.05
1679343248987712562,-0.039
1679343248995409856,-0.029,,686
1679343249003107150,-0.077
1679343249010804444,-0.14300000000000002
1679343249018501738,-0.138
1679343249026199032,-0.109
1679343249033896326,-0.10300000000000001
1679343249041593620,-0.105
1679343249049290914,-0.105
1679343249056988208,-0.088
1679343249064685502,-0.065
1679343249072382796,-0.048
1679343249080080090,-0.031
1679343249087777384,-0.025
1679343249095474678,-0.058
1679343249103171972,-0.092
1679343249110869266,-0.107
1679343249118566560,-0.124
1679343249126263854,-0.134
1679343249133961148,-0.138
1679343249141658442,-0.14
1679343249149355736,-0.132
1679343249157053030,-0.126
1679343249164750324,-0.11900000000000001
1679343249172447618,-0.096
1679343249180144912,-0.082
1679343249187842206,-0.098
1679343249195539500,-0.094
1679343249203236794,-0.061
1679343249210934088,-0.073
1679343249218631382,-0.113
1679343249226328676,-0.10300000000000001
1679343249234025970,-0.075
1679343249241723264,-0.077
1679343249249420558,-0.1
1679343249257117852,-0.151
1679343249264815146,-0.189
1679343249272512440,-0.187
1679343249280209734,-0.193
1679343249287907028,-0.189
1679343249295604322,-0.155
1679343249303301616,-0.132
1679343249310998910,-0.14300000000000002
1679343249318696204,-0.149
1679343249326393498,-0.07100000000000001
1679343249334090792,0.17
1679343249341788086,0.485
1679343249349485380,0.549
1679343249357182674,0.126
1679343249364879968,-0.37
1679343249372577262,-0.395
1679343249380274556,-0.138
1679343249387971850,-0.002
1679343249395669144,0.035
1679343249403366438,0.07100000000000001
1679343249411063732,0.092
1679343249418761026,0.096
1679343249426458320,0.107
1679343249434155614,0.13
1679343249441852908,0.157
1679343249449550202,0.168
1679343249457247496,0.157
1679343249464944790,0.14
1679343249472642084,0.151
1679343249480339378,0.18
1679343249488036672,0.191
1679343249495733966,0.20800000000000002
1679343249503431260,0.248
1679343249511128554,0.258
1679343249518825848,0.246
1679343249526523182,0.275,84
1679343249534220058,0.328
1679343249541916934,0.355
1679343249549613810,0.34900000000000003
1679343249557310686,0.342
1679343249565007562,0.357
1679343249572704438,0.34900000000000003
1679343249580401314,0.29
1679343249588098190,0.256
1679343249595795066,0.258
1679343249603491942,0.225
1679343249611188818,0.176
1679343249618885694,0.151
1679343249626582570,0.111
1679343249634279446,0.069
1679343249641976322,0.061
1679343249649673198,0.052000000000000005
1679343249657370074,0.037
1679343249665066950,0.044
1679343249672763826,0.054,,678
1679343249680460702,0.063
1679343249688157578,0.077
1679343249695854454,0.082
1679343249703551330,0.052000000000000005
1679343249711248206,0.027
1679343249718945082,0.044
1679343249726641958,0.063
1679343249734338834,0.05
1679343249742035710,0.046
1679343249749732586,0.065
1679343249757429462,0.042
1679343249765126338,-0.023
1679343249772823214,-0.033
1679343249780520090,-0.012
1679343249788216966,-0.048
1679343249795913842,-0.08600000000000001
1679343249803610718,-0.084
1679343249811307594,-0.107
1679343249819004470,-0.14300000000000002
1679343249826701346,-0.14300000000000002
1679343249834398222,-0.14300000000000002
1679343249842095098,-0.153
1679343249849791974,-0.155
1679343249857488850,-0.14300000000000002
1679343249865185726,-0.11900000000000001
1679343249872882602,-0.105
1679343249880579478,-0.111
1679343249888276354,-0.109
1679343249895973230,-0.073
1679343249903670106,-0.037
1679343249911366982,-0.037
1679343249919063858,-0.05
1679343249926760734,-0.054
1679343249934457610,-0.063
1679343249942154486,-0.088
1679343249949851362,-0.128
1679343249957548238,-0.138
1679343249965245114,-0.11900000000000001
1679343249972941990,-0.136
1679343249980638866,-0.147
1679343249988335742,-0.113
1679343249996032618,-0.073
1679343250003729494,0.058
1679343250011426370,0.363
1679343250019123246,0.58
1679343250026820122,0.338
1679343250034516998,-0.189
1679343250042213874,-0.406
1679343250049910750,-0.231
1679343250057607626,-0.061
1679343250065304502,0.002
1679343250073001378,0.046
1679343250080698254,0.075
1679343250088395166,0.08600000000000001
1679343250096092460,0.109
1679343250103789754,0.136
1679343250111487048,0.134
1679343250119184342,0.132
1679343250126881636,0.155
1679343250134578930,0.187
1679343250142276224,0.178
1679343250149973518,0.132
1679343250157670812,0.1
1679343250165368106,0.124
1679343250173065400,0.151
1679343250180762694,0.145
1679343250188459988,0.145
1679343250196157282,0.147
1679343250203854576,0.117
1679343250211551870,0.10300000000000001
1679343250219249164,0.138
1679343250226946458,0.178
1679343250234643752,0.189
1679343250242341046,0.189
1679343250250038340,0.183
1679343250257735634,0.145
1679343250265432928,0.065
1679343250273130222,0.01
1679343250280827516,0.014
1679343250288524810,0.002
1679343250296222104,-0.056
1679343250303919398,-0.1
1679343250311616692,-0.111
1679343250319313986,-0.115
1679343250327011280,-0.122,,654
1679343250334708574,-0.122
1679343250342405868,-0.11900000000000001
1679343250350103162,-0.111
1679343250357800456,-0.098
1679343250365497750,-0.075
1679343250373195044,-0.046
1679343250380892338,-0.033
1679343250388589632,-0.048
1679343250396286926,-0.039
1679343250403984220,-0.008
1679343250411681514,0.01
1679343250419378808,0.023
1679343250427076102,0.039
1679343250434773396,0.039
1679343250442470690,-0.004
1679343250450167984,-0.039
1679343250457865278,-0.023
1679343250465562572,-0.002
1679343250473259866,-0.029
1679343250480957160,-0.073
1679343250488654454,-0.094
1679343250496351748,-0.107
1679343250504049042,-0.126
1679343250511746336,-0.126
1679343250519443630,-0.113
1679343250527140924,-0.11900000000000001
1679343250534838218,-0.128
1679343250542535512,-0.115
1679343250550232806,-0.092
1679343250557930100,-0.069
1679343250565627394,-0.056
1679343250573324688,-0.048
1679343250581021982,-0.031
1679343250588719276,-0.029
1679343250596416570,-0.046
1679343250604113864,-0.044
1679343250611811158,-0.025
1679343250619508452,-0.025
1679343250627205746,-0.037
1679343250634903040,-0.025
1679343250642600334,0.008
1679343250650297670,0.023,85
1679343250657994964,0.002
1679343250665692258,-0.008
1679343250673389552,0.109
1679343250681086846,0.41200000000000003
1679343250688784140,0.685
1679343250696481434,0.561
1679343250704178728,0.025
1679343250711876022,-0.391
1679343250719573316,-0.359
1679343250727270610,-0.155
1679343250734967904,-0.063
1679343250742665198,-0.14300000000000002
1679343250750362492,-0.227
1679343250758059786,-0.107
1679343250765757080,-0.025
1679343250773454374,-0.111
1679343250781151668,-0.117
1679343250788848962,-0.044
1679343250796546256,-0.035
1679343250804243550,-0.056
1679343250811940844,-0.046
1679343250819638138,-0.044
1679343250827335432,-0.077
1679343250835032726,-0.105
1679343250842730020,-0.094
1679343250850427314,0.002
1679343250858124608,0.134
1679343250865821902,0.17400000000000002
1679343250873519196,0.164
1679343250881216490,0.212
1679343250888913784,0.225
1679343250896611078,-0.01
1679343250904308372,-0.309
1679343250912005666,-0.273
1679343250919702960,-0.134
1679343250927400254,-0.166
1679343250935097548,-0.195
1679343250942794842,-0.183
1679343250950492136,-0.151
1679343250958189430,0.075
1679343250965886724,0.384
1679343250973584018,0.384
1679343250981281312,0.241,,653
1679343250988978606,0.23900000000000002
1679343250996675900,0.23900000000000002
1679343251004373194,0.20600000000000002
1679343251012070488,0.218
1679343251019767782,0.233
1679343251027465076,0.22
1679343251035162370,0.222
1679343251042859664,0.229
1679343251050556958,0.227
1679343251058254252,0.23500000000000001
1679343251065951546,0.258
1679343251073648840,0.26
1679343251081346134,0.248
1679343251089043428,0.23900000000000002
1679343251096740722,0.248
1679343251104438016,0.258
1679343251112135310,0.26
1679343251119832604,0.262
1679343251127529898,0.267
1679343251135227192,0.262
1679343251142924486,0.25
1679343251150621780,0.229
1679343251158319074,0.20400000000000001
1679343251166016368,0.17400000000000002
1679343251173713662,0.117
1679343251181410956,0.052000000000000005
1679343251189108250,0.021
1679343251196805544,0.01
1679343251204502838,0.002
1679343251212200172,0.004
1679343251219897257,-0.002
1679343251227594342,-0.012
1679343251235291427,0.002
1679343251242988512,0.033
1679343251250685597,0.058
1679343251258382682,0.048
1679343251266079767,-0.014
1679343251273776852,-0.07100000000000001
1679343251281473937,-0.092
1679343251289171022,-0.145
1679343251296868107,-0.185
1679343251304565192,-0.157
1679343251312262277,-0.147
1679343251319959362,-0.17200000000000001
1679343251327656447,-0.157
1679343251335353532,-0.113
1679343251343050617,-0.115
1679343251350747702,-0.124
1679343251358444787,0.025
1679343251366141872,0.361
1679343251373838957,0.593
1679343251381536042,0.34900000000000003
1679343251389233127,-0.193
1679343251396930212,-0.40800000000000003
1679343251404627297,-0.231
1679343251412324382,-0.067
1679343251420021467,-0.01
1679343251427718552,0.01
1679343251435415637,-0.004
1679343251443112722,-0.006
1679343251450809807,0.014
1679343251458506892,0.021
1679343251466203977,0.016
1679343251473901062,0.042
1679343251481598147,0.088
1679343251489295232,0.111
1679343251496992317,0.113
1679343251504689402,0.11900000000000001
1679343251512386487,0.147
1679343251520083572,0.178
1679343251527780657,0.199
1679343251535477742,0.216
1679343251543174827,0.229
1679343251550871912,0.246
1679343251558568997,0.273
1679343251566266082,0.298
1679343251573963167,0.328
1679343251581660252,0.34700000000000003
1679343251589357337,0.34
1679343251597054422,0.338
1679343251604751507,0.359
1679343251612448592,0.37
1679343251620145677,0.359
1679343251627842762,0.34500000000000003
1679343251635539847,0.311,,652
1679343251643236932,0.244
1679343251650934017,0.191
1679343251658631102,0.176
1679343251666328187,0.161
1679343251674025272,0.111
1679343251681722357,0.052000000000000005
1679343251689419442,0.042
1679343251697116527,0.063
1679343251704813612,0.063
1679343251712510697,0.056
1679343251720207782,0.07100000000000001
1679343251727904867,0.08600000000000001
1679343251735601952,0.077
1679343251743299037,0.077
1679343251750996122,0.1
1679343251758693207,0.096
1679343251766390292,0.033
1679343251774087414,-0.014,86
1679343251781784917,0.018000000000000002
1679343251789482420,0.052000000000000005
1679343251797179923,0.023
1679343251804877426,-0.016
1679343251812574929,-0.035
1679343251820272432,-0.082
1679343251827969935,-0.176
1679343251835667438,-0.225
1679343251843364941,-0.20400000000000001
1679343251851062444,-0.21
1679343251858759947,-0.227
1679343251866457450,-0.201
1679343251874154953,-0.183
1679343251881852456,-0.191
1679343251889549959,-0.191
1679343251897247462,-0.17400000000000002
1679343251904944965,-0.151
1679343251912642468,-0.145
1679343251920339971,-0.155
1679343251928037474,-0.151
1679343251935734977,-0.117
1679343251943432480,-0.10300000000000001
1679343251951129983,-0.124
1679343251958827486,-0.132
1679343251966524989,-0.113
1679343251974222492,-0.1
1679343251981919995,-0.096
1679343251989617498,-0.079
1679343251997315001,-0.065
1679343252005012504,-0.056
1679343252012710007,-0.044
1679343252020407510,-0.039
1679343252028105013,-0.016
1679343252035802516,0.111
1679343252043500019,0.378
1679343252051197522,0.601
1679343252058895025,0.448
1679343252066592528,-0.027
1679343252074290031,-0.294
1679343252081987534,-0.153
1679343252089685037,0.037
1679343252097382540,0.088
1679343252105080043,0.107
1679343252112777546,0.14300000000000002
1679343252120475049,0.164
1679343252128172552,0.176
1679343252135870055,0.187
1679343252143567558,0.195
1679343252151265061,0.216
1679343252158962564,0.244
1679343252166660067,0.23500000000000001
1679343252174357570,0.216
1679343252182055073,0.229
1679343252189752576,0.233
1679343252197450079,0.231
1679343252205147582,0.262
1679343252212845085,0.28600000000000003
1679343252220542588,0.28800000000000003
1679343252228240091,0.305
1679343252235937594,0.326
1679343252243635097,0.332
1679343252251332600,0.34900000000000003
1679343252259030103,0.374
1679343252266727606,0.35100000000000003
1679343252274425109,0.271
1679343252282122612,0.22
1679343252289820115,0.20800000000000002,,658
1679343252297517618,0.17
1679343252305215121,0.13
1679343252312912624,0.109
1679343252320610127,0.082
1679343252328307630,0.037
1679343252336005176,-0.021,87
1679343252343702470,-0.033
1679343252351399764,0.029
1679343252359097058,0.063
1679343252366794352,0.031
1679343252374491646,0.014
1679343252382188940,0.033
1679343252389886234,0.037
1679343252397583528,-0.004
1679343252405280822,-0.054
1679343252412978116,-0.084
1679343252420675410,-0.117
1679343252428372704,-0.136
1679343252436069998,-0.115
1679343252443767292,-0.08600000000000001
1679343252451464586,-0.084
1679343252459161880,-0.10300000000000001
1679343252466859174,-0.13
1679343252474556468,-0.14300000000000002
1679343252482253762,-0.164
1679343252489951056,-0.195
1679343252497648350,-0.189
1679343252505345644,-0.161
1679343252513042938,-0.17400000000000002
1679343252520740232,-0.197
1679343252528437526,-0.17200000000000001
1679343252536134820,-0.134
1679343252543832114,-0.13
1679343252551529408,-0.14300000000000002
1679343252559226702,-0.134
1679343252566923996,-0.105
1679343252574621290,-0.092
1679343252582318584,-0.088
1679343252590015878,-0.061
1679343252597713172,-0.023
1679343252605410466,-0.014
1679343252613107760,-0.016
1679343252620805054,0.014
1679343252628502348,0.052000000000000005
1679343252636199642,0.048
1679343252643896936,0.025
1679343252651594230,-0.065
1679343252659291524,-0.323
1679343252666988818,-0.401
1679343252674686112,-0.046
1679343252682383406,0.14300000000000002
1679343252690080700,-0.008
1679343252697777994,-0.025
1679343252705475288,0.05
1679343252713172582,0.037
1679343252720869876,0.10300000000000001
1679343252728567170,0.3
1679343252736264464,0.433
1679343252743961758,0.378
1679343252751659052,-0.008
1679343252759356346,-0.614
1679343252767053640,-0.782
1679343252774750934,-0.536
1679343252782448228,-0.45
1679343252790145522,-0.481
1679343252797842816,-0.437
1679343252805540110,-0.401
1679343252813237404,-0.374
1679343252820934698,-0.311
1679343252828631992,-0.273
1679343252836329286,-0.271
1679343252844026580,-0.241
1679343252851723874,-0.189
1679343252859421168,-0.117
1679343252867118462,-0.061
1679343252874815756,-0.079
1679343252882513050,-0.075
1679343252890210344,0.021
1679343252897907678,0.225
1679343252905604972,0.427
1679343252913302266,0.313
1679343252920999560,0.016
1679343252928696854,-0.073
1679343252936394148,-0.05
1679343252944091442,-0.084
1679343252951788736,-0.079
1679343252959486030,-0.069
1679343252967183324,-0.124,,673
1679343252974880618,-0.098
1679343252982577912,0.107
1679343252990275206,0.317
1679343252997972500,0.384
1679343253005669794,0.378
1679343253013367088,0.34900000000000003
1679343253021064382,0.305
1679343253028761676,0.262
1679343253036458970,0.23700000000000002
1679343253044156264,0.233
1679343253051853558,0.23900000000000002
1679343253059550852,0.241
1679343253067248146,0.22
1679343253074945440,0.195
1679343253082642734,0.201
1679343253090340028,0.201
1679343253098037322,0.199
1679343253105734616,0.20600000000000002
1679343253113431910,0.164
1679343253121129204,0.105
1679343253128826498,0.094
1679343253136523792,0.088
1679343253144221086,0.069
1679343253151918380,0.046
1679343253159615674,0.014
1679343253167312968,0.004
1679343253175010262,0.002
1679343253182707556,0.0
1679343253190404850,0.027
1679343253198102144,0.063
1679343253205799438,0.054
1679343253213496732,0.037
1679343253221194026,0.05
1679343253228891320,0.065
1679343253236588614,0.067
1679343253244285908,0.069
1679343253251983202,0.084
1679343253259680496,0.09
1679343253267377790,0.079
1679343253275075084,0.063
1679343253282772378,0.037
1679343253290469672,0.008
1679343253298166966,-0.01
1679343253305864260,-0.021
1679343253313561554,-0.016
1679343253321258848,-0.018000000000000002
1679343253328956142,-0.031
1679343253336653436,-0.027
1679343253344350730,-0.002
1679343253352048024,0.008
1679343253359745318,0.008
1679343253367442612,0.084
1679343253375139906,0.176
1679343253382837200,0.17200000000000001
1679343253390534494,0.252
1679343253398231788,0.46
1679343253405929082,0.6960000000000001
1679343253413626376,0.793
1679343253421323670,0.357
1679343253429020964,-0.20600000000000002
1679343253436718258,-0.254
1679343253444415552,-0.084
1679343253452112846,-0.031
1679343253459810180,0.008,87
1679343253467507474,0.077
1679343253475204768,0.069
1679343253482902062,0.008
1679343253490599356,0.023
1679343253498296650,0.07100000000000001
1679343253505993944,0.042
1679343253513691238,0.0
1679343253521388532,0.029
1679343253529085826,0.073
1679343253536783120,0.075
1679343253544480414,0.082
1679343253552177708,0.138
1679343253559875002,0.273
1679343253567572296,0.401
1679343253575269590,0.393
1679343253582966884,0.336
1679343253590664178,0.305
1679343253598361472,0.23700000000000002
1679343253606058766,0.191
1679343253613756060,0.233
1679343253621453354,0.231
1679343253629150648,0.151
1679343253636847942,0.132,,672
1679343253644545236,0.136
1679343253652242530,0.079
1679343253659939824,0.031
1679343253667637118,0.016
1679343253675334412,0.004
1679343253683031706,-0.014
1679343253690729000,-0.029
1679343253698426294,-0.027
1679343253706123588,-0.01
1679343253713820882,-0.01
1679343253721518176,-0.021
1679343253729215470,-0.012
1679343253736912764,0.021
1679343253744610058,0.044
1679343253752307352,0.044
1679343253760004646,0.042
1679343253767701940,0.037
1679343253775399234,0.01
1679343253783096528,-0.037
1679343253790793822,-0.109
1679343253798491116,-0.153
1679343253806188410,-0.159
1679343253813885704,-0.187
1679343253821582998,-0.195
1679343253829280292,-0.164
1679343253836977586,-0.168
1679343253844674880,-0.185
1679343253852372174,-0.168
1679343253860069468,-0.149
1679343253867766762,-0.14300000000000002
1679343253875464056,-0.138
1679343253883161350,-0.34900000000000003
1679343253890858644,-0.765
1679343253898555938,-0.841
1679343253906253232,-0.618
1679343253913950526,-0.538
1679343253921647820,-0.41200000000000003
1679343253929345114,-0.075
1679343253937042408,0.134
1679343253944739702,0.037
1679343253952436996,-0.046
1679343253960134290,0.031
1679343253967831584,0.061
1679343253975528878,0.035
1679343253983226172,0.039
1679343253990923466,0.035
1679343253998620760,0.031
1679343254006318054,0.048
1679343254014015348,0.054
1679343254021712684,0.039
1679343254029409978,0.016
1679343254037107272,0.048
1679343254044804566,0.273
1679343254052501860,0.607
1679343254060199154,0.706
1679343254067896448,0.393
1679343254075593742,-0.1
1679343254083291036,-0.307
1679343254090988330,-0.092
1679343254098685624,0.11900000000000001
1679343254106382918,0.10300000000000001
1679343254114080212,0.052000000000000005
1679343254121777506,0.075
1679343254129474800,0.08600000000000001
1679343254137172094,0.054
1679343254144869388,0.044
1679343254152566682,0.07100000000000001
1679343254160263976,0.096
1679343254167961270,0.092
1679343254175658564,0.09
1679343254183355858,0.117
1679343254191053152,0.147
1679343254198750446,0.153
1679343254206447740,0.17
1679343254214145034,0.21
1679343254221842328,0.227
1679343254229539622,0.222
1679343254237236916,0.25
1679343254244934210,0.296
1679343254252631504,0.323
1679343254260328798,0.323
1679343254268026092,0.319
1679343254275723386,0.313
1679343254283420680,0.277
1679343254291117974,0.201
1679343254298815268,0.136
1679343254306512562,0.111
1679343254314209856,0.079
1679343254321907150,0.029,,683
1679343254329604444,0.01
1679343254337301738,0.014
1679343254344999032,0.008
1679343254352696326,-0.01
1679343254360393620,-0.018000000000000002
1679343254368090914,-0.004
1679343254375788208,0.002
1679343254383485502,-0.016
1679343254391182796,-0.021
1679343254398880090,-0.008
1679343254406577384,-0.018000000000000002
1679343254414274678,-0.018000000000000002
1679343254421971972,0.014
1679343254429669266,0.037
1679343254437366560,0.031
1679343254445063854,-0.002
1679343254452761148,-0.031
1679343254460458442,-0.046
1679343254468155736,-0.077
1679343254475853030,-0.10300000000000001
1679343254483550324,-0.08600000000000001
1679343254491247618,-0.065
1679343254498944912,-0.082
1679343254506642206,-0.096
1679343254514339500,-0.07100000000000001
1679343254522036794,-0.05
1679343254529734088,-0.058
1679343254537431382,-0.056
1679343254545128676,-0.037
1679343254552825970,-0.035
1679343254560523264,-0.039
1679343254568220558,-0.025
1679343254575917852,0.01
1679343254583615186,0.039,87
1679343254591312480,0.042
1679343254599009774,0.052000000000000005
1679343254606707068,0.088
1679343254614404362,0.096
1679343254622101656,0.058
1679343254629798950,0.014
1679343254637496244,-0.021
1679343254645193538,-0.065
1679343254652890832,-0.111
1679343254660588126,-0.107
1679343254668285420,-0.07100000000000001
1679343254675982714,-0.069
1679343254683680008,-0.105
1679343254691377302,-0.124
1679343254699074596,-0.031
1679343254706771890,0.252
1679343254714469184,0.624
1679343254722166478,0.7000000000000001
1679343254729863772,0.201
1679343254737561066,-0.372
1679343254745258360,-0.376
1679343254752955654,-0.073
1679343254760652948,0.052000000000000005
1679343254768350242,0.05
1679343254776047536,0.061
1679343254783744830,0.084
1679343254791442124,0.1
1679343254799139418,0.079
1679343254806836712,0.033
1679343254814534006,0.035
1679343254822231300,0.054
1679343254829928594,0.042
1679343254837625888,0.05
1679343254845323182,0.092
1679343254853020476,0.115
1679343254860717770,0.113
1679343254868415064,0.111
1679343254876112358,0.094
1679343254883809652,0.073
1679343254891506946,0.082
1679343254899204240,0.117
1679343254906901534,0.149
1679343254914598828,0.157
1679343254922296122,0.164
1679343254929993416,0.187
1679343254937690710,0.212
1679343254945388004,0.201
1679343254953085298,0.159
1679343254960782592,0.132
1679343254968479886,0.117
1679343254976177180,0.069
1679343254983874474,-0.016
1679343254991571768,-0.029
1679343254999269062,0.033,,678
1679343255006966356,0.023
1679343255014663650,-0.025
1679343255022360944,0.01
1679343255030058238,0.056
1679343255037755532,0.05
1679343255045452826,0.042
1679343255053150120,0.061
1679343255060847414,0.077
1679343255068544708,0.079
1679343255076242002,0.088
1679343255083939296,0.113
1679343255091636590,0.134
1679343255099333884,0.122
1679343255107031178,0.10300000000000001
1679343255114728472,0.082
1679343255122425766,0.035
1679343255130123060,-0.037
1679343255137820354,-0.084
1679343255145517688,-0.09
1679343255153214982,-0.096
1679343255160912276,-0.111
1679343255168609570,-0.105
1679343255176306864,-0.084
1679343255184004158,-0.084
1679343255191701452,-0.109
1679343255199398746,-0.105
1679343255207096040,-0.079
1679343255214793334,-0.098
1679343255222490628,-0.151
1679343255230187922,-0.155
1679343255237885216,-0.134
1679343255245582510,-0.147
1679343255253279804,-0.147
1679343255260977098,-0.117
1679343255268674392,-0.08600000000000001
1679343255276371686,-0.069
1679343255284068980,-0.063
1679343255291766274,-0.048
1679343255299463568,-0.073
1679343255307160862,-0.155
1679343255314858156,-0.183
1679343255322555450,-0.145
1679343255330252744,-0.147
1679343255337950038,-0.166
1679343255345647332,-0.14300000000000002
1679343255353344626,-0.111
1679343255361041920,-0.11900000000000001
1679343255368739214,-0.161
1679343255376436508,-0.18
1679343255384133802,-0.128
1679343255391831096,0.044
1679343255399528390,0.376
1679343255407225684,0.664
1679343255414922978,0.47700000000000004
1679343255422620272,-0.14
1679343255430317566,-0.47500000000000003
1679343255438014860,-0.265
1679343255445712154,-0.025
1679343255453409448,0.025
1679343255461106742,0.052000000000000005
1679343255468804036,0.084
1679343255476501330,0.092
1679343255484198624,0.107
1679343255491895918,0.128
1679343255499593212,0.153
1679343255507290506,0.178
1679343255514987800,0.185
1679343255522685094,0.185
1679343255530382388,0.20600000000000002
1679343255538079682,0.23700000000000002
1679343255545776976,0.258
1679343255553474270,0.267
1679343255561171564,0.279
1679343255568868858,0.302
1679343255576566152,0.321
1679343255584263446,0.336
1679343255591960740,0.361
1679343255599658034,0.391
1679343255607355328,0.397
1679343255615052622,0.363
1679343255622749916,0.199
1679343255630447210,-0.109
1679343255638144504,-0.164
1679343255645841798,0.20600000000000002
1679343255653539092,0.422
1679343255661236386,0.262
1679343255668933680,0.178
1679343255676630974,0.222
1679343255684328268,0.201,,689
1679343255692025562,0.17200000000000001
1679343255699722856,0.157
1679343255707420190,0.113,87
1679343255715117484,-0.037
1679343255722814778,-0.3
1679343255730512072,-0.376
1679343255738209366,-0.244
1679343255745906660,-0.22
1679343255753603954,-0.28800000000000003
1679343255761301248,-0.298
1679343255768998542,-0.273
1679343255776695836,-0.241
1679343255784393130,-0.227
1679343255792090424,-0.269
1679343255799787718,-0.353
1679343255807485012,-0.40800000000000003
1679343255815182306,-0.433
1679343255822879600,-0.46
1679343255830576894,-0.467
1679343255838274188,-0.456
1679343255845971482,-0.458
1679343255853668776,-0.47900000000000004
1679343255861366070,-0.498
1679343255869063364,-0.496
1679343255876760658,-0.485
1679343255884457952,-0.481
1679343255892155246,-0.456
1679343255899852540,-0.422
1679343255907549834,-0.418
1679343255915247128,-0.406
1679343255922944422,-0.366
1679343255930641716,-0.34700000000000003
1679343255938339010,-0.34
1679343255946036304,-0.313
1679343255953733598,-0.254
1679343255961430892,-0.17
1679343255969128186,-0.149
1679343255976825480,-0.157
1679343255984522774,0.021
1679343255992220068,0.098
1679343255999917362,-0.155
1679343256007614656,-0.227
1679343256015311950,0.054
1679343256023009244,0.332
1679343256030706538,0.267
1679343256038403832,-0.025
1679343256046101126,-0.07100000000000001
1679343256053798420,-0.031
1679343256061495714,-0.11900000000000001
1679343256069193008,-0.027
1679343256076890302,0.37
1679343256084587596,0.755
1679343256092284890,0.799
1679343256099982184,0.744
1679343256107679478,0.656
1679343256115376772,0.244
1679343256123074066,-0.039
1679343256130771360,0.20800000000000002
1679343256138468654,0.45
1679343256146165948,0.429
1679343256153863242,0.45
1679343256161560536,0.523
1679343256169257830,0.528
1679343256176955124,0.546
1679343256184652418,0.481
1679343256192349712,0.321
1679343256200047006,0.45
1679343256207744300,0.544
1679343256215441594,0.42
1679343256223138888,0.668
1679343256230836182,0.868
1679343256238533476,0.6900000000000001
1679343256246230770,0.664
1679343256253928064,0.748
1679343256261625358,0.6940000000000001
1679343256269322692,0.643,87
1679343256277020404,0.645
1679343256284718116,0.65
1679343256292415828,0.713
1679343256300113540,0.727
1679343256307811252,0.607
1679343256315508964,0.515
1679343256323206676,0.49
1679343256330904388,0.418
1679343256338602100,0.34500000000000003
1679343256346299812,0.305
1679343256353997524,0.233,,670
1679343256361695236,0.176
1679343256369392948,0.176
1679343256377090660,0.153
1679343256384788372,0.105
1679343256392486084,0.073
1679343256400183796,0.067
1679343256407881508,0.073
1679343256415579220,0.082
1679343256423276932,0.092
1679343256430974644,0.1
1679343256438672356,0.098
1679343256446370068,0.088
1679343256454067780,0.092
1679343256461765492,0.105
1679343256469463204,0.052000000000000005
1679343256477160916,-0.128
1679343256484858628,-0.313
1679343256492556340,-0.38
1679343256500254052,-0.399
1679343256507951764,-0.431
1679343256515649476,-0.448
1679343256523347188,-0.418
1679343256531044900,-0.378
1679343256538742612,-0.376
1679343256546440324,-0.378
1679343256554138036,-0.34700000000000003
1679343256561835748,-0.307
1679343256569533460,-0.28800000000000003
1679343256577231172,-0.28300000000000003
1679343256584928884,-0.265
1679343256592626596,-0.244
1679343256600324308,-0.252
1679343256608022020,-0.252
1679343256615719732,-0.229
1679343256623417444,-0.225
1679343256631115156,-0.218
1679343256638812868,-0.157
1679343256646510580,-0.092
1679343256654208292,-0.063
1679343256661906004,-0.033
1679343256669603716,-0.027
1679343256677301428,-0.052000000000000005
1679343256684999140,-0.027
1679343256692696852,0.018000000000000002
1679343256700394564,0.039
1679343256708092276,0.069
1679343256715789988,0.096
1679343256723487700,0.098
1679343256731185412,0.122
1679343256738883124,0.151
1679343256746580836,0.157
1679343256754278548,0.25
1679343256761976260,0.5
1679343256769673972,0.715
1679343256777371684,0.5630000000000001
1679343256785069396,0.098
1679343256792767108,-0.164
1679343256800464820,-0.054
1679343256808162532,0.07100000000000001
1679343256815860244,0.069
1679343256823557956,0.075,,463
1679343256831255710,0.111
1679343256838953004,0.092
1679343256846650298,0.037
1679343256854347592,0.012
1679343256862044886,-0.002
1679343256869742180,-0.058
1679343256877439474,-0.109
1679343256885136768,-0.082
1679343256892834062,-0.048
1679343256900531356,-0.075
1679343256908228650,-0.08600000000000001
1679343256915925944,-0.058
1679343256923623238,-0.054
1679343256931320532,-0.05
1679343256939017826,-0.014
1679343256946715120,0.012
1679343256954412414,0.029
1679343256962109708,0.052000000000000005
1679343256969807002,0.09
1679343256977504296,0.128
1679343256985201590,0.13
1679343256992898884,0.052000000000000005
1679343257000596178,-0.092
1679343257008293472,-0.199
1679343257015990766,-0.157
1679343257023688060,-0.042
1679343257031385354,-0.084
1679343257039082648,-0.256
1679343257046779942,-0.20400000000000001
1679343257054477236,0.138
1679343257062174530,0.41000000000000003
1679343257069871824,0.431
1679343257077569118,0.382
1679343257085266412,0.372
1679343257092963706,0.328
1679343257100661000,0.279
1679343257108358294,0.28300000000000003
1679343257116055588,0.298
1679343257123752882,0.296
1679343257131450176,0.277
1679343257139147470,0.254
1679343257146844764,0.262
1679343257154542058,0.281
1679343257162239352,0.265
1679343257169936646,0.22
1679343257177633940,0.176
1679343257185331234,0.138
1679343257193028528,0.113
1679343257200725822,0.105
1679343257208423116,0.10300000000000001
1679343257216120410,0.096
1679343257223817704,0.09
1679343257231514998,0.082
1679343257239212292,0.079
1679343257246909586,0.1
1679343257254606880,0.113
1679343257262304174,0.10300000000000001
1679343257270001468,0.107
1679343257277698762,0.126
1679343257285396056,0.128
1679343257293093350,0.132
1679343257300790644,0.161
1679343257308487938,0.176
1679343257316185232,0.115
1679343257323882526,0.037
1679343257331579820,0.012
1679343257339277114,-0.016
1679343257346974408,-0.058
1679343257354671702,-0.063
1679343257362368996,-0.058
1679343257370066290,-0.058
1679343257377763584,-0.048
1679343257385460878,-0.033
1679343257393158216,-0.025,87
1679343257400855510,-0.014
1679343257408552804,0.088
1679343257416250098,0.34900000000000003
1679343257423947392,0.561
1679343257431644686,0.40800000000000003
1679343257439341980,-0.018000000000000002
1679343257447039274,-0.256
1679343257454736568,-0.17400000000000002
1679343257462433862,-0.044
1679343257470131156,-0.012
1679343257477828450,-0.01
1679343257485525744,0.016
1679343257493223038,0.033
1679343257500920332,0.018000000000000002
1679343257508617626,0.023
1679343257516314920,0.058
1679343257524012214,0.082
1679343257531709508,0.088
1679343257539406802,0.111
1679343257547104096,0.128
1679343257554801390,0.13
1679343257562498684,0.138
1679343257570195978,0.178
1679343257577893272,0.20800000000000002
1679343257585590566,0.17200000000000001
1679343257593287860,0.124
1679343257600985154,0.14
1679343257608682448,0.187
1679343257616379742,0.201
1679343257624077036,0.20600000000000002
1679343257631774330,0.23700000000000002
1679343257639471624,0.252
1679343257647168918,0.23700000000000002
1679343257654866212,0.23900000000000002
1679343257662563506,0.252,,844
1679343257670260800,0.231
1679343257677958094,0.187
1679343257685655388,0.149
1679343257693352682,0.126
1679343257701049976,0.122
1679343257708747270,0.111
1679343257716444564,0.098
1679343257724141858,0.1
1679343257731839152,0.096
1679343257739536446,0.077
1679343257747233740,0.092
1679343257754931034,0.124
1679343257762628328,0.134
1679343257770325622,0.136
1679343257778022916,0.14
1679343257785720210,0.155
1679343257793417504,0.17400000000000002
1679343257801114798,0.134
1679343257808812092,-0.161
1679343257816509386,-0.372
1679343257824206680,0.044
1679343257831903974,0.309
1679343257839601268,0.002
1679343257847298562,-0.082
1679343257854995856,0.035
1679343257862693150,-0.069
1679343257870390444,-0.14
1679343257878087738,-0.077
1679343257885785032,-0.082
1679343257893482326,-0.107
1679343257901179620,-0.067
1679343257908876914,-0.052000000000000005
1679343257916574208,-0.075
1679343257924271502,-0.058
1679343257931968796,-0.014
1679343257939666090,0.008
1679343257947363384,0.023
1679343257955060718,0.039
1679343257962758221,0.029
1679343257970455724,0.006
1679343257978153227,0.0
1679343257985850730,-0.023
1679343257993548233,-0.111
1679343258001245736,-0.1
1679343258008943239,0.016
1679343258016640742,-0.029
1679343258024338245,-0.094
1679343258032035748,-0.039
1679343258039733251,-0.033
1679343258047430754,0.023
1679343258055128257,0.28600000000000003
1679343258062825760,0.551
1679343258070523263,0.452
1679343258078220766,-0.018000000000000002
1679343258085918269,-0.357
1679343258093615772,-0.28800000000000003
1679343258101313275,-0.126
1679343258109010778,-0.052000000000000005
1679343258116708281,0.004
1679343258124405784,0.025
1679343258132103287,-0.004
1679343258139800790,-0.021
1679343258147498293,-0.012
1679343258155195796,-0.016
1679343258162893299,-0.012
1679343258170590802,0.016
1679343258178288305,0.048
1679343258185985808,0.052000000000000005
1679343258193683311,0.048
1679343258201380814,0.061
1679343258209078317,0.088
1679343258216775820,0.105
1679343258224473323,0.11900000000000001
1679343258232170826,0.145
1679343258239868329,0.166
1679343258247565832,0.166
1679343258255263335,0.185
1679343258262960838,0.229
1679343258270658341,0.252
1679343258278355844,0.248
1679343258286053347,0.23900000000000002
1679343258293750850,0.22
1679343258301448353,0.187
1679343258309145856,0.153
1679343258316843359,0.096
1679343258324540862,-0.031
1679343258332238365,-0.183
1679343258339935868,-0.23900000000000002
1679343258347633371,-0.231
1679343258355330874,-0.229,,688
1679343258363028377,-0.23500000000000001
1679343258370725880,-0.246
1679343258378423383,-0.254
1679343258386120886,-0.23700000000000002
1679343258393818389,-0.214
1679343258401515892,-0.20800000000000002
1679343258409213395,-0.183
1679343258416910898,-0.147
1679343258424608401,-0.151
1679343258432305904,-0.155
1679343258440003407,-0.124
1679343258447700910,-0.094
1679343258455398413,-0.079
1679343258463095916,-0.07100000000000001
1679343258470793419,-0.065
1679343258478490922,-0.05
1679343258486188425,-0.035
1679343258493885928,-0.023
1679343258501583431,0.004
1679343258509280934,0.027
1679343258516978478,0.018000000000000002,87
1679343258524675563,0.014
1679343258532372648,0.046
1679343258540069733,0.077
1679343258547766818,0.092
1679343258555463903,0.107
1679343258563160988,0.111
1679343258570858073,0.073
1679343258578555158,0.004
1679343258586252243,-0.039
1679343258593949328,-0.033
1679343258601646413,-0.031
1679343258609343498,-0.056
1679343258617040583,-0.054
1679343258624737668,-0.016
1679343258632434753,0.002
1679343258640131838,0.006
1679343258647828923,0.021
1679343258655526008,0.014
1679343258663223093,-0.006
1679343258670920178,0.09
1679343258678617263,0.384
1679343258686314348,0.685
1679343258694011433,0.603
1679343258701708518,0.105
1679343258709405603,-0.244
1679343258717102688,-0.14
1679343258724799773,0.063
1679343258732496858,0.136
1679343258740193943,0.17
1679343258747891028,0.136
1679343258755588113,0.061
1679343258763285198,0.14300000000000002
1679343258770982283,0.254
1679343258778679368,0.157
1679343258786376453,0.07100000000000001
1679343258794073538,0.231
1679343258801770623,0.353
1679343258809467708,0.126
1679343258817164793,-0.321
1679343258824861878,-0.5650000000000001
1679343258832558963,-0.494
1679343258840256048,-0.443
1679343258847953133,-0.47500000000000003
1679343258855650218,-0.418
1679343258863347303,-0.338
1679343258871044388,-0.309
1679343258878741473,-0.29
1679343258886438558,-0.252
1679343258894135643,-0.20400000000000001
1679343258901832728,-0.168
1679343258909529813,-0.155
1679343258917226898,-0.128
1679343258924923983,-0.096
1679343258932621068,-0.098
1679343258940318153,-0.124
1679343258948015238,-0.11900000000000001
1679343258955712323,-0.098
1679343258963409408,-0.098
1679343258971106493,-0.132
1679343258978803578,-0.168
1679343258986500663,-0.164
1679343258994197748,-0.14
1679343259001894833,-0.136
1679343259009591918,-0.07100000000000001
1679343259017289003,0.039
1679343259024986088,0.241
1679343259032683173,0.578
1679343259040380258,0.654
1679343259048077343,0.504
1679343259055774428,0.517
1679343259063471513,0.53
1679343259071168598,0.393
1679343259078865722,0.294
1679343259086563016,0.294
1679343259094260310,0.193
1679343259101957604,-0.056
1679343259109654898,-0.193
1679343259117352192,-0.178
1679343259125049486,-0.265
1679343259132746780,-0.355
1679343259140444074,-0.313
1679343259148141368,-0.302
1679343259155838662,-0.359
1679343259163535956,-0.37
1679343259171233250,-0.338
1679343259178930544,-0.323
1679343259186627838,-0.29
1679343259194325132,-0.168
1679343259202022426,0.067
1679343259209719720,0.313
1679343259217417014,0.376
1679343259225114308,0.292
1679343259232811602,0.275
1679343259240508896,0.305
1679343259248206190,0.277
1679343259255903484,0.248
1679343259263600778,0.23900000000000002
1679343259271298072,0.20400000000000001
1679343259278995366,0.225
1679343259286692660,0.448
1679343259294389954,0.782
1679343259302087248,0.839
1679343259309784542,0.387
1679343259317481836,-0.157
1679343259325179130,-0.262
1679343259332876424,-0.109
1679343259340573718,-0.035
1679343259348271012,0.002
1679343259355968306,0.037
1679343259363665600,0.039
1679343259371362894,0.061
1679343259379060188,0.094
1679343259386757482,0.098
1679343259394454776,0.088
1679343259402152070,0.107
1679343259409849364,0.134
1679343259417546658,0.145
1679343259425243952,0.157
1679343259432941246,0.183
1679343259440638540,0.193
1679343259448335834,0.193
1679343259456033128,0.222
1679343259463730422,0.262
1679343259471427716,0.28800000000000003
1679343259479125010,0.298
1679343259486822304,0.305
1679343259494519598,0.319
1679343259502216892,0.334
1679343259509914186,0.34
1679343259517611480,0.34700000000000003
1679343259525308774,0.357
1679343259533006068,0.357
1679343259540703362,0.342
1679343259548400656,0.311
1679343259556097950,0.26
1679343259563795244,0.212
1679343259571492538,0.18
1679343259579189832,0.153
1679343259586887126,0.138
1679343259594584420,0.136
1679343259602281714,0.134
1679343259609979008,0.145
1679343259617676302,0.166
1679343259625373596,0.161
1679343259633070890,0.153
1679343259640768224,0.176,88
1679343259648465518,0.21
1679343259656162812,0.20800000000000002
1679343259663860106,0.17200000000000001
1679343259671557400,0.136
1679343259679254694,0.122
1679343259686951988,0.08600000000000001
1679343259694649282,0.035
1679343259702346576,0.031
1679343259710043870,0.05
1679343259717741164,0.027,,1362
1679343259725438458,0.008
1679343259733135752,0.027
1679343259740833046,0.046
1679343259748530340,0.046
1679343259756227634,0.046
1679343259763924928,0.063
1679343259771622222,0.08600000000000001
1679343259779319516,0.092
1679343259787016810,0.10300000000000001
1679343259794714104,0.122
1679343259802411398,0.092
1679343259810108692,0.023
1679343259817805986,-0.002
1679343259825503280,0.0
1679343259833200574,-0.058
1679343259840897868,-0.155
1679343259848595162,-0.21
1679343259856292456,-0.231
1679343259863989750,-0.262
1679343259871687044,-0.281
1679343259879384338,-0.28800000000000003
1679343259887081632,-0.246
1679343259894778926,-0.027
1679343259902476220,0.311
1679343259910173514,0.393
1679343259917870808,-0.018000000000000002
1679343259925568102,-0.517
1679343259933265396,-0.549
1679343259940962690,-0.3
1679343259948659984,-0.185
1679343259956357278,-0.17200000000000001
1679343259964054572,-0.14
1679343259971751866,-0.107
1679343259979449160,-0.084
1679343259987146454,-0.067
1679343259994843748,-0.065
1679343260002541042,-0.046
1679343260010238336,-0.014
1679343260017935630,0.0
1679343260025632924,0.023
1679343260033330218,0.054
1679343260041027512,0.052000000000000005
1679343260048724806,0.031
1679343260056422100,0.044
1679343260064119394,0.079
1679343260071816688,0.107
1679343260079513982,0.11900000000000001
1679343260087211276,0.13
1679343260094908570,0.155
1679343260102605864,0.189
1679343260110303158,0.201
1679343260118000452,0.214
1679343260125697746,0.241
1679343260133395040,0.244
1679343260141092334,0.216
1679343260148789628,0.216
1679343260156486922,0.23900000000000002
1679343260164184216,0.225
1679343260171881510,0.187
1679343260179578804,0.168
1679343260187276098,0.168
1679343260194973392,0.164
1679343260202670726,0.155
1679343260210368020,0.164
1679343260218065314,0.17400000000000002
1679343260225762608,0.14
1679343260233459902,0.09
1679343260241157196,0.092
1679343260248854490,0.117
1679343260256551784,0.115
1679343260264249078,0.111
1679343260271946372,0.11900000000000001
1679343260279643666,0.13
1679343260287340960,0.14
1679343260295038254,0.132
1679343260302735548,0.11900000000000001
1679343260310432842,0.126
1679343260318130136,0.115
1679343260325827430,0.107
1679343260333524724,0.128
1679343260341222018,0.098
1679343260348919312,0.014
1679343260356616606,-0.006
1679343260364313900,0.018000000000000002
1679343260372011194,0.012,,654
1679343260379708488,0.01
1679343260387405782,0.044
1679343260395103076,0.082
1679343260402800370,0.098
1679343260410497664,0.098
1679343260418194958,0.105
1679343260425892252,0.117
1679343260433589546,0.109
1679343260441286840,0.1
1679343260448984134,0.11900000000000001
1679343260456681428,0.13
1679343260464378722,0.11900000000000001
1679343260472076016,0.122
1679343260479773310,0.14300000000000002
1679343260487470604,0.157
1679343260495167898,0.132
1679343260502865192,0.117
1679343260510562486,0.279
1679343260518259780,0.635
1679343260525957074,0.86
1679343260533654368,0.578
1679343260541351662,-0.012
1679343260549048956,-0.269
1679343260556746250,-0.092
1679343260564443544,0.075
1679343260572140838,0.113
1679343260579838132,0.149
1679343260587535426,0.161
1679343260595232720,0.136
1679343260602930014,0.151
1679343260610627308,0.185
1679343260618324602,0.193
1679343260626021896,0.199
1679343260633719190,0.222
1679343260641416484,0.233
1679343260649113778,0.227
1679343260656811072,0.23900000000000002
1679343260664508366,0.273
1679343260672205660,0.292
1679343260679902954,0.29
1679343260687600248,0.298
1679343260695297542,0.317
1679343260702994836,0.336
1679343260710692130,0.353
1679343260718389424,0.378
1679343260726086718,0.397
1679343260733784012,0.391
1679343260741481306,0.33
1679343260749178600,0.28600000000000003
1679343260756875894,0.366
1679343260764573230,0.427,89
1679343260772270524,0.332
1679343260779967818,0.025
1679343260787665112,-0.389
1679343260795362406,-0.498
1679343260803059700,-0.38
1679343260810756994,-0.387
1679343260818454288,-0.42
1679343260826151582,-0.433
1679343260833848876,-0.494
1679343260841546170,-0.53
1679343260849243464,-0.551
1679343260856940758,-0.5700000000000001
1679343260864638052,-0.553
1679343260872335346,-0.523
1679343260880032640,-0.496
1679343260887729934,-0.47700000000000004
1679343260895427228,-0.456
1679343260903124522,-0.41200000000000003
1679343260910821816,-0.374
1679343260918519110,-0.372
1679343260926216404,-0.361
1679343260933913698,-0.326
1679343260941610992,-0.29
1679343260949308286,-0.267
1679343260957005580,-0.25
1679343260964702874,-0.231
1679343260972400168,-0.214
1679343260980097462,-0.189
1679343260987794756,-0.136
1679343260995492050,-0.107
1679343261003189344,-0.13
1679343261010886638,-0.1,,640
1679343261018583932,0.09
1679343261026281226,0.151
1679343261033978520,-0.168
1679343261041675814,-0.218
1679343261049373108,0.25
1679343261057070402,0.271
1679343261064767696,-0.189
1679343261072464990,0.025
1679343261080162284,0.517
1679343261087859578,0.35100000000000003
1679343261095556872,0.195
1679343261103254166,0.368
1679343261110951460,0.311
1679343261118648754,0.164
1679343261126346048,0.23900000000000002
1679343261134043342,0.33
1679343261141740636,0.277
1679343261149437930,0.225
1679343261157135224,0.227
1679343261164832518,0.323
1679343261172529812,0.612
1679343261180227106,0.91
1679343261187924400,0.772
1679343261195621694,0.17400000000000002
1679343261203318988,-0.227
1679343261211016282,-0.134
1679343261218713576,0.033
1679343261226410870,0.069
1679343261234108164,0.084
1679343261241805458,0.082
1679343261249502752,0.056
1679343261257200046,0.054
1679343261264897340,0.079
1679343261272594634,0.077
1679343261280291928,0.039
1679343261287989222,0.014
1679343261295686516,0.027
1679343261303383810,0.039
1679343261311081104,0.039
1679343261318778398,0.056
1679343261326475732,0.073,92
1679343261334173026,0.067
1679343261341870320,0.044
1679343261349567614,0.002
1679343261357264908,-0.027
1679343261364962202,-0.008
1679343261372659496,0.01
1679343261380356790,0.008
1679343261388054084,-0.044
1679343261395751378,-0.193
1679343261403448672,-0.214
1679343261411145966,-0.17400000000000002
1679343261418843260,-0.25
1679343261426540554,-0.096
1679343261434237848,0.052000000000000005
1679343261441935142,-0.07100000000000001
1679343261449632436,-0.098
1679343261457329730,-0.042
1679343261465027024,-0.082
1679343261472724318,-0.117
1679343261480421612,-0.279
1679343261488118906,-0.599
1679343261495816200,-0.41200000000000003
1679343261503513494,0.14
1679343261511210788,0.136
1679343261518908082,-0.084
1679343261526605376,0.004
1679343261534302670,0.054
1679343261541999964,-0.004
1679343261549697258,0.016
1679343261557394552,0.052000000000000005
1679343261565091846,0.046
1679343261572789140,0.037
1679343261580486434,0.039
1679343261588183728,0.07100000000000001
1679343261595881022,0.115
1679343261603578316,0.122
1679343261611275610,0.1
1679343261618972904,0.1
1679343261626670198,0.134
1679343261634367492,0.151,,623
1679343261642064786,0.14
1679343261649762080,0.115
1679343261657459374,-0.006
1679343261665156668,-0.309
1679343261672853962,-0.443
1679343261680551256,-0.082
1679343261688248550,0.277
1679343261695945844,0.191
1679343261703643138,0.044
1679343261711340432,0.09
1679343261719037726,0.111
1679343261726735020,0.09
1679343261734432314,0.117
1679343261742129608,0.065
1679343261749826902,-0.063
1679343261757524196,-0.077
1679343261765221490,0.025
1679343261772918784,0.035
1679343261780616078,0.006
1679343261788313372,0.098
1679343261796010666,0.14300000000000002
1679343261803707960,0.107
1679343261811405254,0.126
1679343261819102548,0.14300000000000002
1679343261826799842,0.115
1679343261834497136,0.113
1679343261842194430,0.109
1679343261849891724,0.002
1679343261857589018,-0.117
1679343261865286312,-0.107
1679343261872983606,-0.10300000000000001
1679343261880680900,-0.17
1679343261888378234,-0.342
1679343261896075528,-0.79
1679343261903772822,-1.123
1679343261911470116,-0.9520000000000001
1679343261919167410,-0.677
1679343261926864704,-0.612
1679343261934561998,-0.645
1679343261942259292,-0.658
1679343261949956586,-0.624
1679343261957653880,-0.578
1679343261965351174,-0.557
1679343261973048468,-0.544
1679343261980745762,-0.511
1679343261988443056,-0.46900000000000003
1679343261996140350,-0.435
1679343262003837644,-0.40800000000000003
1679343262011534938,-0.389
1679343262019232232,-0.399
1679343262026929526,-0.41600000000000004
1679343262034626820,-0.389
1679343262042324114,-0.332
1679343262050021408,-0.294
1679343262057718702,-0.262
1679343262065415996,-0.222
1679343262073113290,-0.157
1679343262080810584,0.126
1679343262088507878,0.506
1679343262096205172,0.538
1679343262103902466,0.433
1679343262111599760,0.494
1679343262119297054,0.492
1679343262126994348,0.41200000000000003
1679343262134691642,0.41000000000000003
1679343262142388936,0.42
1679343262150086230,0.378
1679343262157783524,0.34700000000000003
1679343262165480818,0.342
1679343262173178112,0.319
1679343262180875406,0.3
1679343262188572700,0.309
1679343262196269994,0.328
1679343262203967288,0.326
1679343262211664582,0.307
1679343262219361876,0.305
1679343262227059170,0.328
1679343262234756464,0.338
1679343262242453758,0.336,,610
1679343262250151052,0.342
1679343262257848346,0.33
1679343262265545640,0.281
1679343262273242934,0.248
1679343262280940228,0.26
1679343262288637522,0.275
1679343262296334816,0.269
1679343262304032110,0.254
1679343262311729404,0.25
1679343262319426698,0.23500000000000001
1679343262327123992,0.199
1679343262334821286,0.185
1679343262342518580,0.193
1679343262350215874,0.17200000000000001
1679343262357913168,0.105
1679343262365610462,0.052000000000000005
1679343262373307756,0.067
1679343262381005050,0.09
1679343262388702344,0.069
1679343262396399638,0.054
1679343262404096932,0.07100000000000001
1679343262411794226,0.084
1679343262419491520,0.079
1679343262427188814,0.094
1679343262434886108,0.117
1679343262442583402,0.113
1679343262450280736,0.098,92
1679343262457978448,0.115
1679343262465676160,0.14300000000000002
1679343262473373872,0.155
1679343262481071584,0.14
1679343262488769296,0.109
1679343262496467008,0.1
1679343262504164720,0.08600000000000001
1679343262511862432,0.029
1679343262519560144,-0.01
1679343262527257856,-0.014
1679343262534955568,-0.069
1679343262542653280,-0.159
1679343262550350992,-0.168
1679343262558048704,-0.134
1679343262565746416,-0.14300000000000002
1679343262573444128,-0.155
1679343262581141840,-0.149
1679343262588839552,-0.153
1679343262596537264,-0.151
1679343262604234976,-0.027
1679343262611932688,0.279
1679343262619630400,0.544
1679343262627328112,0.37
1679343262635025824,-0.17400000000000002
1679343262642723536,-0.456
1679343262650421248,-0.294
1679343262658118960,-0.10300000000000001
1679343262665816672,-0.046
1679343262673514384,-0.006
1679343262681212096,0.021
1679343262688909808,0.021
1679343262696607520,0.042
1679343262704305232,0.079
1679343262712002944,0.092
1679343262719700656,0.088
1679343262727398368,0.10300000000000001
1679343262735096080,0.136
1679343262742793792,0.17
1679343262750491504,0.185
1679343262758189216,0.166
1679343262765886928,0.149
1679343262773584640,0.164
1679343262781282352,0.18
1679343262788980064,0.199
1679343262796677776,0.23500000000000001
1679343262804375488,0.262
1679343262812073200,0.26
1679343262819770912,0.262
1679343262827468624,0.29
1679343262835166336,0.3
1679343262842864048,0.28800000000000003
1679343262850561760,0.29,,607
1679343262858259472,0.275
1679343262865957184,0.191
1679343262873654896,0.111
1679343262881352608,0.088
1679343262889050320,-0.115
1679343262896748032,-0.305
1679343262904445744,-0.008
1679343262912143456,0.229
1679343262919841168,0.065
1679343262927538880,0.029
1679343262935236592,0.13
1679343262942934304,0.079
1679343262950632016,0.004
1679343262958329728,0.023
1679343262966027440,0.042
1679343262973725152,0.046
1679343262981422864,0.07100000000000001
1679343262989120576,0.079
1679343262996818288,0.044
1679343263004516000,0.006
1679343263012213756,0.0
1679343263019911050,0.004
1679343263027608344,0.012
1679343263035305638,0.021
1679343263043002932,-0.01
1679343263050700226,-0.075
1679343263058397520,-0.09
1679343263066094814,-0.054
1679343263073792108,-0.044
1679343263081489402,-0.056
1679343263089186696,-0.054
1679343263096883990,-0.039
1679343263104581284,-0.039
1679343263112278578,-0.063
1679343263119975872,-0.073
1679343263127673166,-0.084
1679343263135370460,-0.132
1679343263143067754,-0.155
1679343263150765048,-0.128
1679343263158462342,-0.113
1679343263166159636,-0.117
1679343263173856930,-0.115
1679343263181554224,-0.111
1679343263189251518,-0.105
1679343263196948812,-0.096
1679343263204646106,-0.088
1679343263212343400,-0.065
1679343263220040694,-0.042
1679343263227737988,-0.05
1679343263235435282,-0.056
1679343263243132576,-0.048
1679343263250829870,-0.063
1679343263258527164,-0.084
1679343263266224458,-0.067
1679343263273921752,-0.048
1679343263281619046,-0.033
1679343263289316340,-0.016
1679343263297013634,-0.006
1679343263304710928,0.004
1679343263312408222,0.004
1679343263320105516,-0.006
1679343263327802810,-0.004
1679343263335500104,0.021
1679343263343197398,0.048
1679343263350894692,0.065
1679343263358591986,0.07100000000000001
1679343263366289280,0.039
1679343263373986574,-0.012
1679343263381683868,0.075
1679343263389381162,0.38
1679343263397078456,0.618
1679343263404775750,0.389
1679343263412473044,-0.164
1679343263420170338,-0.403
1679343263427867632,-0.201
1679343263435564926,-0.006
1679343263443262220,0.044
1679343263450959514,0.082
1679343263458656808,0.109
1679343263466354102,0.1,,618
1679343263474051396,0.111
1679343263481748690,0.14300000000000002
1679343263489445984,0.159
1679343263497143278,0.149
1679343263504840572,0.136
1679343263512537866,0.155
1679343263520235160,0.187
1679343263527932454,0.201
1679343263535629748,0.21
1679343263543327042,0.227
1679343263551024336,0.225
1679343263558721630,0.199
1679343263566418924,0.197
1679343263574116258,0.227,93
1679343263581813622,0.25
1679343263589510986,0.246
1679343263597208350,0.241
1679343263604905714,0.252
1679343263612603078,0.25
1679343263620300442,0.201
1679343263627997806,0.157
1679343263635695170,0.166
1679343263643392534,0.155
1679343263651089898,0.107
1679343263658787262,0.096
1679343263666484626,0.111
1679343263674181990,0.092
1679343263681879354,0.065
1679343263689576718,0.054
1679343263697274082,0.052000000000000005
1679343263704971446,0.058
1679343263712668810,0.056
1679343263720366174,0.037
1679343263728063538,0.016
1679343263735760902,-0.014
1679343263743458266,-0.075
1679343263751155630,-0.107
1679343263758852994,-0.08600000000000001
1679343263766550358,-0.073
1679343263774247722,-0.088
1679343263781945086,-0.09
1679343263789642450,-0.084
1679343263797339814,-0.084
1679343263805037178,-0.073
1679343263812734542,-0.048
1679343263820431906,-0.042
1679343263828129270,-0.063
1679343263835826634,-0.065
1679343263843523998,-0.037
1679343263851221362,-0.025
1679343263858918726,-0.027
1679343263866616090,-0.018000000000000002
1679343263874313454,-0.033
1679343263882010818,-0.1
1679343263889708182,-0.151
1679343263897405546,-0.138
1679343263905102910,-0.109
1679343263912800274,-0.105
1679343263920497638,-0.117
1679343263928195002,-0.10300000000000001
1679343263935892366,-0.061
1679343263943589730,-0.037
1679343263951287094,-0.033
1679343263958984458,-0.021
1679343263966681822,-0.002
1679343263974379186,0.021
1679343263982076550,0.031
1679343263989773914,0.008
1679343263997471278,0.008
1679343264005168642,0.031
1679343264012866006,0.023
1679343264020563370,0.023
1679343264028260734,0.061
1679343264035958098,0.077
1679343264043655462,0.08600000000000001
1679343264051352826,0.11900000000000001
1679343264059050190,0.14300000000000002
1679343264066747554,0.147
1679343264074444918,0.166
1679343264082142282,0.185
1679343264089839646,0.183
1679343264097537010,0.17200000000000001
1679343264105234374,0.166
1679343264112931738,0.17400000000000002
1679343264120629102,0.187,,656
1679343264128326466,0.191
1679343264136023848,0.20400000000000001
1679343264143721490,0.22
1679343264151419132,0.199
1679343264159116774,0.166
1679343264166814416,0.267
1679343264174512058,0.555
1679343264182209700,0.782
1679343264189907342,0.5720000000000001
1679343264197604984,0.023
1679343264205302626,-0.254
1679343264213000268,-0.11900000000000001
1679343264220697910,0.01
1679343264228395552,0.018000000000000002
1679343264236093194,0.018000000000000002
1679343264243790836,-0.008
1679343264251488478,-0.042
1679343264259186120,-0.025
1679343264266883762,0.01
1679343264274581404,0.025
1679343264282279046,0.021
1679343264289976688,0.027
1679343264297674330,0.054
1679343264305371972,0.077
1679343264313069614,0.084
1679343264320767256,0.088
1679343264328464898,0.084
1679343264336162540,0.052000000000000005
1679343264343860182,0.021
1679343264351557824,0.012
1679343264359255466,0.025
1679343264366953108,0.035
1679343264374650750,0.042
1679343264382348392,0.021
1679343264390046034,-0.048
1679343264397743676,-0.098
1679343264405441318,-0.084
1679343264413138960,-0.063
1679343264420836602,-0.07100000000000001
1679343264428534244,-0.084
1679343264436231886,-0.092
1679343264443929528,-0.094
1679343264451627170,-0.098
1679343264459324812,-0.109
1679343264467022454,-0.124
1679343264474720096,-0.153
1679343264482417738,-0.201
1679343264490115380,-0.225
1679343264497813022,-0.199
1679343264505510664,-0.161
1679343264513208306,-0.149
1679343264520905948,-0.157
1679343264528603590,-0.149
1679343264536301232,-0.1
1679343264543998874,-0.07100000000000001
1679343264551696516,-0.07100000000000001
1679343264559394158,-0.05
1679343264567091800,-0.027
1679343264574789442,-0.029
1679343264582487084,-0.018000000000000002
1679343264590184726,0.016
1679343264597882368,0.044
1679343264605580010,0.052000000000000005
1679343264613277652,0.048
1679343264620975294,0.061
1679343264628672936,0.092
1679343264636370578,0.105
1679343264644068220,0.111
1679343264651765862,0.136
1679343264659463504,0.147
1679343264667161146,0.132
1679343264674858788,0.145
1679343264682556430,0.18
1679343264690254072,0.199
1679343264697951782,0.193,93
1679343264705649076,0.187
1679343264713346370,0.199
1679343264721043664,0.21
1679343264728740958,0.189
1679343264736438252,0.176
1679343264744135546,0.195
1679343264751832840,0.187
1679343264759530134,0.124
1679343264767227428,0.084
1679343264774924722,0.094
1679343264782622016,0.07100000000000001
1679343264790319310,0.025
1679343264798016604,0.021
1679343264805713898,0.037
1679343264813411192,0.05
1679343264821108486,0.065,,700
1679343264828805780,0.079
1679343264836503074,0.09
1679343264844200368,0.082
1679343264851897662,0.061
1679343264859594956,0.061
1679343264867292250,0.077
1679343264874989544,0.077
1679343264882686838,0.063
1679343264890384132,0.023
1679343264898081426,-0.046
1679343264905778720,-0.075
1679343264913476014,-0.058
1679343264921173308,-0.065
1679343264928870602,-0.029
1679343264936567896,0.153
1679343264944265190,0.427
1679343264951962484,0.502
1679343264959659778,0.117
1679343264967357072,-0.424
1679343264975054366,-0.5630000000000001
1679343264982751660,-0.374
1679343264990448954,-0.23900000000000002
1679343264998146248,-0.20800000000000002
1679343265005843542,-0.185
1679343265013540836,-0.157
1679343265021238130,-0.149
1679343265028935424,-0.153
1679343265036632718,-0.14
1679343265044330012,-0.10300000000000001
1679343265052027306,-0.077
1679343265059724600,-0.069
1679343265067421894,-0.048
1679343265075119188,-0.025
1679343265082816482,-0.016
1679343265090513776,0.0
1679343265098211070,0.029
1679343265105908364,0.063
1679343265113605658,0.084
1679343265121302952,0.088
1679343265129000246,0.111
1679343265136697540,0.153
1679343265144394834,0.178
1679343265152092128,0.191
1679343265159789422,0.21
1679343265167486716,0.222
1679343265175184010,0.22
1679343265182881304,0.22
1679343265190578598,0.233
1679343265198275892,0.248
1679343265205973186,0.231
1679343265213670480,0.17
1679343265221367774,0.111
1679343265229065068,0.084
1679343265236762362,0.075
1679343265244459656,0.069
1679343265252156950,0.073
1679343265259854284,0.073,91
1679343265267551857,0.065
1679343265275249430,0.075
1679343265282947003,0.109
1679343265290644576,0.132
1679343265298342149,0.134
1679343265306039722,0.128
1679343265313737295,0.14300000000000002
1679343265321434868,0.149
1679343265329132441,0.111
1679343265336830014,0.084
1679343265344527587,0.1
1679343265352225160,0.109
1679343265359922733,0.09
1679343265367620306,0.098
1679343265375317879,0.13
1679343265383015452,0.147
1679343265390713025,0.136
1679343265398410598,0.092
1679343265406108171,0.027
1679343265413805744,0.0
1679343265421503317,0.014
1679343265429200890,0.016
1679343265436898463,-0.012
1679343265444596036,-0.046
1679343265452293609,-0.061
1679343265459991182,-0.067
1679343265467688755,-0.092
1679343265475386328,-0.115
1679343265483083901,-0.115
1679343265490781474,-0.107
1679343265498479047,-0.096
1679343265506176620,-0.082
1679343265513874193,-0.069
1679343265521571766,-0.05
1679343265529269339,-0.027
1679343265536966912,-0.031
1679343265544664485,-0.039
1679343265552362058,-0.01
1679343265560059631,0.027,,739
1679343265567757204,0.039
1679343265575454777,0.048
1679343265583152350,0.075
1679343265590849923,0.096
1679343265598547496,0.067
1679343265606245069,0.016
1679343265613942642,-0.004
1679343265621640215,-0.025
1679343265629337788,-0.073
1679343265637035361,-0.094
1679343265644732934,-0.077
1679343265652430507,-0.069
1679343265660128080,-0.077
1679343265667825653,-0.092
1679343265675523226,-0.094
1679343265683220799,0.014
1679343265690918372,0.29
1679343265698615945,0.549
1679343265706313518,0.41600000000000004
1679343265714011091,-0.136
1679343265721708664,-0.519
1679343265729406237,-0.403
1679343265737103810,-0.17400000000000002
1679343265744801383,-0.092
1679343265752498956,-0.063
1679343265760196529,-0.037
1679343265767894102,-0.031
1679343265775591675,-0.025
1679343265783289248,-0.01
1679343265790986821,0.016
1679343265798684394,0.05
1679343265806381967,0.065
1679343265814079540,0.058
1679343265821777130,0.07100000000000001
1679343265829474494,0.1
1679343265837171858,0.105
1679343265844869222,0.105
1679343265852566586,0.136
1679343265860263950,0.147
1679343265867961314,0.1
1679343265875658678,0.054
1679343265883356042,0.077
1679343265891053406,0.128
1679343265898750770,0.134
1679343265906448134,0.082
1679343265914145498,0.042
1679343265921842862,0.058
1679343265929540226,0.065
1679343265937237590,0.054
1679343265944934954,0.065
1679343265952632318,0.054
1679343265960329682,-0.002
1679343265968027046,-0.029
1679343265975724410,-0.018000000000000002
1679343265983421774,-0.021
1679343265991119138,-0.035
1679343265998816502,-0.039
1679343266006513866,-0.037
1679343266014211230,-0.018000000000000002
1679343266021908594,0.0
1679343266029605958,0.021
1679343266037303322,0.042
1679343266045000686,0.044
1679343266052698050,0.05
1679343266060395414,0.08600000000000001
1679343266068092778,0.117
1679343266075790142,0.128
1679343266083487506,0.14
1679343266091184870,0.149
1679343266098882234,0.153
1679343266106579598,0.17200000000000001
1679343266114276962,0.195
1679343266121974326,0.20800000000000002
1679343266129671690,0.214
1679343266137369054,0.189
1679343266145066418,0.155
1679343266152763782,0.166
1679343266160461146,0.193
1679343266168158510,0.199
1679343266175855874,0.191
1679343266183553238,0.183
1679343266191250602,0.185
1679343266198947966,0.193
1679343266206645330,0.18
1679343266214342694,0.166
1679343266222040058,0.168
1679343266229737422,0.161
1679343266237434786,0.151
1679343266245132150,0.159
1679343266252829514,0.166
1679343266260526878,0.18
1679343266268224242,0.20600000000000002
1679343266275921606,0.214
1679343266283618970,0.22
1679343266291316334,0.227
1679343266299013698,0.22
1679343266306711062,0.20600000000000002
1679343266314408426,0.176
1679343266322105790,0.117
1679343266329803154,0.07100000000000001
1679343266337500518,0.075,,777
1679343266345197882,0.079
1679343266352895246,0.054
1679343266360592610,0.048
1679343266368289974,0.054
1679343266375987338,0.008
1679343266383684718,-0.077,87
1679343266391382082,-0.037
1679343266399079446,0.166
1679343266406776810,0.41600000000000004
1679343266414474174,0.62
1679343266422171538,0.517
1679343266429868902,-0.023
1679343266437566266,-0.521
1679343266445263630,-0.54
1679343266452960994,-0.336
1679343266460658358,-0.23500000000000001
1679343266468355722,-0.218
1679343266476053086,-0.199
1679343266483750450,-0.168
1679343266491447814,-0.138
1679343266499145178,-0.115
1679343266506842542,-0.111
1679343266514539906,-0.107
1679343266522237270,-0.075
1679343266529934634,-0.042
1679343266537631998,-0.023
1679343266545329362,0.0
1679343266553026726,0.014
1679343266560724090,0.021
1679343266568421454,0.046
1679343266576118818,0.084
1679343266583816182,0.107
1679343266591513546,0.124
1679343266599210910,0.147
1679343266606908274,0.17400000000000002
1679343266614605638,0.193
1679343266622303002,0.21
1679343266630000366,0.241
1679343266637697730,0.262
1679343266645395094,0.25
1679343266653092458,0.225
1679343266660789822,0.222
1679343266668487186,0.23700000000000002
1679343266676184550,0.225
1679343266683881914,0.183
1679343266691579278,0.151
1679343266699276642,0.10300000000000001
1679343266706974006,0.054
1679343266714671370,0.042
1679343266722368734,0.052000000000000005
1679343266730066098,0.061
1679343266737763462,0.052000000000000005
1679343266745460826,0.042
1679343266753158190,0.069
1679343266760855554,0.113
1679343266768552918,0.117
1679343266776250282,0.107
1679343266783947646,0.132
1679343266791645010,0.155
1679343266799342374,0.155
1679343266807039738,0.161
1679343266814737102,0.189
1679343266822434466,0.20400000000000001
1679343266830131830,0.191
1679343266837829194,0.183
1679343266845526558,0.193
1679343266853223922,0.191
1679343266860921286,0.134
1679343266868618650,0.117
1679343266876316014,0.185
1679343266884013378,0.17200000000000001
1679343266891710742,0.115
1679343266899408106,0.13
1679343266907105470,0.132
1679343266914802834,0.10300000000000001
1679343266922500198,0.082
1679343266930197562,0.033
1679343266937894926,-0.092
1679343266945592306,-0.23500000000000001
1679343266953289252,-0.157
1679343266960986198,0.006
1679343266968683144,-0.044
1679343266976380090,-0.138
1679343266984077036,-0.128
1679343266991773982,-0.107
1679343266999470928,-0.09
1679343267007167874,-0.073
1679343267014864820,-0.088
1679343267022561766,-0.098
1679343267030258712,-0.075
1679343267037955658,-0.09
1679343267045652604,-0.136
1679343267053349550,-0.151
1679343267061046496,-0.17400000000000002
1679343267068743442,-0.212
1679343267076440388,-0.21
1679343267084137334,-0.189
1679343267091834280,-0.20400000000000001
1679343267099531226,-0.17400000000000002
1679343267107228172,-0.035
1679343267114925118,0.3
1679343267122622064,0.54,,785
1679343267130319010,0.044
1679343267138015956,-0.631
1679343267145712902,-0.584
1679343267153409848,-0.269
1679343267161106794,-0.17
1679343267168803740,-0.109
1679343267176500686,-0.046
1679343267184197632,-0.052000000000000005
1679343267191894578,-0.082
1679343267199591524,-0.111
1679343267207288470,-0.22
1679343267214985416,-0.384
1679343267222682362,-0.384
1679343267230379308,-0.178
1679343267238076254,0.002
1679343267245773200,-0.044
1679343267253470146,-0.246
1679343267261167092,-0.361
1679343267268864038,-0.222
1679343267276560984,0.10300000000000001
1679343267284257930,0.28300000000000003
1679343267291954876,0.256
1679343267299651822,0.258
1679343267307348768,0.313
1679343267315045714,0.323
1679343267322742660,0.336
1679343267330439606,0.361
1679343267338136552,0.342
1679343267345833498,0.321
1679343267353530444,0.334
1679343267361227390,0.338
1679343267368924336,0.323
1679343267376621282,0.29
1679343267384318228,0.254
1679343267392015174,0.25
1679343267399712120,0.244
1679343267407409066,0.216
1679343267415106012,0.216
1679343267422802958,0.197
1679343267430499904,0.079
1679343267438196850,-0.01
1679343267445893796,0.008
1679343267453590742,-0.065
1679343267461287688,-0.309
1679343267468984634,-0.326
1679343267476681580,-0.132
1679343267484378526,-0.054
1679343267492075472,0.094
1679343267499772418,0.187
1679343267507469380,0.082,86
1679343267515166744,0.069
1679343267522864108,0.149
1679343267530561472,0.153
1679343267538258836,0.136
1679343267545956200,0.155
1679343267553653564,0.153
1679343267561350928,0.155
1679343267569048292,0.14
1679343267576745656,-0.08600000000000001
1679343267584443020,-0.439
1679343267592140384,-0.5
1679343267599837748,-0.34700000000000003
1679343267607535112,-0.292
1679343267615232476,-0.084
1679343267622929840,0.265
1679343267630627204,0.275
1679343267638324568,0.14300000000000002
1679343267646021932,0.191
1679343267653719296,0.20800000000000002
1679343267661416660,0.132
1679343267669114024,0.115
1679343267676811388,0.126
1679343267684508752,0.088
1679343267692206116,0.048
1679343267699903480,0.0
1679343267707600844,-0.05
1679343267715298208,-0.014
1679343267722995572,0.037
1679343267730692936,0.002
1679343267738390300,-0.012
1679343267746087664,-0.042
1679343267753785028,-0.222
1679343267761482392,-0.34500000000000003
1679343267769179756,-0.277
1679343267776877120,-0.115
1679343267784574484,0.122
1679343267792271848,0.338
1679343267799969212,0.366
1679343267807666576,-0.065
1679343267815363940,-0.727
1679343267823061304,-0.856
1679343267830758668,-0.53
1679343267838456032,-0.357
1679343267846153396,-0.366
1679343267853850760,-0.338
1679343267861548124,-0.28800000000000003
1679343267869245488,-0.258
1679343267876942852,-0.233
1679343267884640216,-0.214
1679343267892337580,-0.195,,767
1679343267900034944,-0.176
1679343267907732308,-0.159
1679343267915429672,-0.136
1679343267923127036,-0.124
1679343267930824400,-0.159
1679343267938521764,-0.201
1679343267946219128,-0.088
1679343267953916492,0.126
1679343267961613856,0.17200000000000001
1679343267969311220,0.113
1679343267977008584,0.147
1679343267984705948,0.191
1679343267992403312,0.183
1679343268000100676,0.199
1679343268007798040,0.23500000000000001
1679343268015495404,0.23900000000000002
1679343268023192768,0.229
1679343268030890132,0.218
1679343268038587496,0.20600000000000002
1679343268046284860,0.214
1679343268053982224,0.227
1679343268061679588,0.216
1679343268069376968,0.199
1679343268077074332,0.17
1679343268084771696,0.136
1679343268092469060,0.128
1679343268100166424,0.145
1679343268107863788,0.164
1679343268115561152,0.161
1679343268123258516,0.145
1679343268130955880,0.147
1679343268138653244,0.164
1679343268146350608,0.145
1679343268154047972,0.107
1679343268161745336,0.109
1679343268169442700,0.105
1679343268177140064,0.044
1679343268184837428,0.012
1679343268192534792,0.042
1679343268200232156,0.058
1679343268207929520,0.046
1679343268215626884,0.035
1679343268223324248,0.048
1679343268231021612,0.073
1679343268238718976,0.084
1679343268246416340,0.094
1679343268254113704,0.117
1679343268261811068,0.113
1679343268269508432,0.096
1679343268277205796,0.111
1679343268284903160,0.14300000000000002
1679343268292600524,0.159
1679343268300297888,0.159
1679343268307995252,0.159
1679343268315692616,0.17200000000000001
1679343268323389980,0.164
1679343268331087344,0.01
1679343268338784708,-0.044
1679343268346482072,0.145
1679343268354179436,0.014
1679343268361876800,-0.22
1679343268369574164,-0.006
1679343268377271528,0.20400000000000001
1679343268384968892,0.26
1679343268392666256,0.254
1679343268400363620,0.029
1679343268408060984,0.069
1679343268415758348,0.431
1679343268423455712,0.40800000000000003
1679343268431153076,0.149
1679343268438850440,0.039
1679343268446547804,0.039
1679343268454245168,0.069
1679343268461942532,0.025
1679343268469639896,0.006
1679343268477337260,0.275
1679343268485034624,0.757
1679343268492731988,0.61
1679343268500429352,-0.212
1679343268508126716,-0.555
1679343268515824080,-0.279
1679343268523521444,-0.01
1679343268531218808,-0.027
1679343268538916172,-0.313
1679343268546613536,-0.397
1679343268554310900,-0.027
1679343268562008264,0.336
1679343268569705628,0.34
1679343268577402992,0.254
1679343268585100356,0.3
1679343268592797720,0.321
1679343268600495084,0.267
1679343268608192448,0.246
1679343268615889812,0.252
1679343268623587176,0.107
1679343268631284556,-0.17200000000000001,85
1679343268638981641,-0.124,,751
1679343268646678726,-0.018000000000000002
1679343268654375811,-0.336
1679343268662072896,-0.431
1679343268669769981,-0.178
1679343268677467066,-0.153
1679343268685164151,-0.277
1679343268692861236,-0.111
1679343268700558321,0.277
1679343268708255406,0.28600000000000003
1679343268715952491,-0.073
1679343268723649576,-0.38
1679343268731346661,-0.361
1679343268739043746,-0.161
1679343268746740831,-0.302
1679343268754437916,-0.513
1679343268762135001,-0.3
1679343268769832086,-0.002
1679343268777529171,0.058
1679343268785226256,-0.098
1679343268792923341,-0.34700000000000003
1679343268800620426,-0.20600000000000002
1679343268808317511,0.25
1679343268816014596,0.277
1679343268823711681,0.073
1679343268831408766,0.113
1679343268839105851,0.155
1679343268846802936,0.187
1679343268854500021,0.23900000000000002
1679343268862197106,0.195
1679343268869894191,0.17200000000000001
1679343268877591276,0.229
1679343268885288361,0.252
1679343268892985446,0.23900000000000002
1679343268900682531,0.214
1679343268908379616,0.07100000000000001
1679343268916076701,-0.105
1679343268923773786,-0.023
1679343268931470871,0.105
1679343268939167956,0.039
1679343268946865041,0.056
1679343268954562126,0.006
1679343268962259211,-0.334
1679343268969956296,-0.58
1679343268977653381,-0.433
1679343268985350466,-0.029
1679343268993047551,0.23900000000000002
1679343269000744636,0.176
1679343269008441721,0.10300000000000001
1679343269016138806,0.157
1679343269023835891,0.0
1679343269031532976,-0.37
1679343269039230061,-0.464
1679343269046927146,-0.25
1679343269054624231,-0.046
1679343269062321316,0.109
1679343269070018401,0.132
1679343269077715486,0.164
1679343269085412571,0.336
1679343269093109656,0.294
1679343269100806741,0.17400000000000002
1679343269108503826,0.29
1679343269116200911,0.37
1679343269123897996,0.10300000000000001
1679343269131595081,-0.256
1679343269139292166,-0.222
1679343269146989251,0.082
1679343269154686336,0.17
1679343269162383421,0.151
1679343269170080506,0.35100000000000003
1679343269177777591,0.397
1679343269185474676,0.147
1679343269193171800,0.094
1679343269200869442,0.439
1679343269208567084,0.839
1679343269216264726,0.9440000000000001
1679343269223962368,0.502
1679343269231660010,-0.41400000000000003
1679343269239357652,-0.866
1679343269247055294,-0.378
1679343269254752936,0.168
1679343269262450578,0.117
1679343269270148220,-0.008
1679343269277845862,0.18
1679343269285543504,0.248
1679343269293241146,0.134
1679343269300938788,0.161
1679343269308636430,0.218
1679343269316334072,0.187
1679343269324031714,0.17200000000000001
1679343269331729356,0.199
1679343269339426998,0.218
1679343269347124640,0.227
1679343269354822282,0.229,,717
1679343269362519924,0.082
1679343269370217566,-0.265
1679343269377915208,-0.269
1679343269385612850,0.214
1679343269393310492,0.378
1679343269401008134,0.155
1679343269408705776,0.111
1679343269416403418,0.147
1679343269424101060,0.067
1679343269431798702,-0.039
1679343269439496344,-0.138
1679343269447193986,-0.267
1679343269454891628,-0.46
1679343269462589270,-0.555
1679343269470286912,-0.506
1679343269477984554,-0.502
1679343269485682196,-0.519
1679343269493379838,-0.49
1679343269501077480,-0.483
1679343269508775122,-0.46
1679343269516472764,-0.376
1679343269524170406,-0.334
1679343269531868048,-0.34500000000000003
1679343269539565690,-0.305
1679343269547263332,-0.252
1679343269554960974,-0.248
1679343269562658616,-0.132
1679343269570356258,0.168
1679343269578053900,0.309
1679343269585751542,0.214
1679343269593449184,0.199
1679343269601146826,0.256
1679343269608844468,0.23700000000000002
1679343269616542110,0.227
1679343269624239752,0.248
1679343269631937394,0.254
1679343269639635036,0.265
1679343269647332678,0.138
1679343269655030320,-0.155
1679343269662727962,-0.077
1679343269670425604,0.34900000000000003
1679343269678123246,0.363
1679343269685820888,0.17200000000000001
1679343269693518530,0.25
1679343269701216172,0.305
1679343269708913814,0.23900000000000002
1679343269716611456,0.248
1679343269724309098,0.292
1679343269732006740,0.28800000000000003
1679343269739704382,0.28300000000000003
1679343269747402024,0.296
1679343269755099732,0.309,85
1679343269762797096,0.319
1679343269770494460,0.317
1679343269778191824,0.315
1679343269785889188,0.319
1679343269793586552,0.292
1679343269801283916,0.21
1679343269808981280,0.134
1679343269816678644,0.187
1679343269824376008,0.273
1679343269832073372,0.229
1679343269839770736,0.191
1679343269847468100,0.248
1679343269855165464,0.273
1679343269862862828,0.26
1679343269870560192,0.256
1679343269878257556,0.244
1679343269885954920,0.214
1679343269893652284,0.183
1679343269901349648,0.153
1679343269909047012,0.138
1679343269916744376,0.134
1679343269924441740,0.122
1679343269932139104,0.117
1679343269939836468,0.126
1679343269947533832,0.117
1679343269955231196,0.151
1679343269962928560,0.34900000000000003
1679343269970625924,0.618
1679343269978323288,0.517
1679343269986020652,-0.039
1679343269993718016,-0.422
1679343270001415380,-0.298
1679343270009112744,-0.084
1679343270016810108,-0.023
1679343270024507472,0.01
1679343270032204836,0.05
1679343270039902200,0.052000000000000005
1679343270047599564,0.058
1679343270055296928,0.08600000000000001
1679343270062994292,0.09,,703
1679343270070691656,0.08600000000000001
1679343270078389020,0.109
1679343270086086384,0.147
1679343270093783748,0.159
1679343270101481112,0.153
1679343270109178476,0.155
1679343270116875840,0.157
1679343270124573204,0.14300000000000002
1679343270132270568,0.128
1679343270139967932,0.105
1679343270147665296,0.048
1679343270155362660,0.012
1679343270163060024,0.021
1679343270170757388,0.037
1679343270178454752,0.052000000000000005
1679343270186152116,0.056
1679343270193849480,0.037
1679343270201546844,0.025
1679343270209244208,0.046
1679343270216941572,0.046
1679343270224638936,0.021
1679343270232336300,0.021
1679343270240033664,0.016
1679343270247731028,-0.023
1679343270255428392,-0.056
1679343270263125756,-0.046
1679343270270823120,-0.031
1679343270278520484,-0.029
1679343270286217848,-0.027
1679343270293915212,-0.021
1679343270301612576,-0.014
1679343270309309940,-0.006
1679343270317007322,0.01,86
1679343270324704616,0.037
1679343270332401910,0.054
1679343270340099204,0.046
1679343270347796498,0.046
1679343270355493792,0.07100000000000001
1679343270363191086,0.077
1679343270370888380,0.033
1679343270378585674,0.0
1679343270386282968,-0.006
1679343270393980262,-0.042
1679343270401677556,-0.077
1679343270409374850,-0.058
1679343270417072144,-0.029
1679343270424769438,-0.035
1679343270432466732,-0.052000000000000005
1679343270440164026,-0.042
1679343270447861320,-0.01
1679343270455558614,-0.014
1679343270463255908,-0.067
1679343270470953202,-0.096
1679343270478650496,-0.079
1679343270486347790,-0.075
1679343270494045084,-0.075
1679343270501742378,-0.05
1679343270509439672,-0.014
1679343270517136966,-0.008
1679343270524834260,-0.021
1679343270532531554,-0.004
1679343270540228848,0.029
1679343270547926142,0.039
1679343270555623436,0.042
1679343270563320730,0.065
1679343270571018024,0.084
1679343270578715318,0.079
1679343270586412612,0.092
1679343270594109906,0.13
1679343270601807200,0.161
1679343270609504494,0.17200000000000001
1679343270617201788,0.176
1679343270624899082,0.189
1679343270632596376,0.17400000000000002
1679343270640293670,0.132
1679343270647990964,0.122
1679343270655688258,0.145
1679343270663385552,0.13
1679343270671082846,0.077
1679343270678780140,0.054
1679343270686477434,0.07100000000000001
1679343270694174728,0.069
1679343270701872022,0.048
1679343270709569316,0.128
1679343270717266610,0.397
1679343270724963904,0.671
1679343270732661198,0.5720000000000001
1679343270740358492,0.067,,678
1679343270748055786,-0.294
1679343270755753080,-0.216
1679343270763450374,-0.012
1679343270771147668,0.09
1679343270778844962,0.13
1679343270786542256,0.145
1679343270794239550,0.14300000000000002
1679343270801936844,0.147
1679343270809634138,0.159
1679343270817331432,0.168
1679343270825028726,0.17200000000000001
1679343270832726020,0.17400000000000002
1679343270840423314,0.153
1679343270848120608,0.109
1679343270855817902,0.07100000000000001
1679343270863515196,0.054
1679343270871212490,0.056
1679343270878909826,0.054
1679343270886607120,0.027
1679343270894304414,0.006
1679343270902001708,0.016
1679343270909699002,0.023
1679343270917396296,0.027
1679343270925093590,0.061
1679343270932790884,0.082
1679343270940488178,0.061
1679343270948185472,0.052000000000000005
1679343270955882766,0.067
1679343270963580060,0.037
1679343270971277354,-0.039
1679343270978974648,-0.073
1679343270986671942,-0.07100000000000001
1679343270994369236,-0.117
1679343271002066530,-0.197
1679343271009763824,-0.222
1679343271017461118,-0.199
1679343271025158412,-0.212
1679343271032855706,-0.246
1679343271040553000,-0.231
1679343271048250294,-0.191
1679343271055947588,-0.17200000000000001
1679343271063644882,-0.157
1679343271071342176,-0.132
1679343271079039470,-0.124
1679343271086736764,-0.126
1679343271094434058,-0.109
1679343271102131352,-0.077
1679343271109828646,-0.052000000000000005
1679343271117525940,-0.042
1679343271125223234,-0.05
1679343271132920528,-0.077
1679343271140617822,-0.096
1679343271148315116,-0.08600000000000001
1679343271156012410,-0.063
1679343271163709704,-0.052000000000000005
1679343271171406998,-0.048
1679343271179104292,-0.037
1679343271186801586,-0.018000000000000002
1679343271194498880,0.01
1679343271202196174,0.035
1679343271209893468,0.042
1679343271217590762,0.037
1679343271225288056,0.048
1679343271232985350,0.07100000000000001
1679343271240682644,0.08600000000000001
1679343271248379938,0.1
1679343271256077232,0.115
1679343271263774526,0.117
1679343271271471820,0.115
1679343271279169114,0.113
1679343271286866408,0.07100000000000001
1679343271294563702,0.073
1679343271302260996,0.183
1679343271309958290,0.222
1679343271317655584,0.187
1679343271325352878,0.20600000000000002
1679343271333050172,0.23700000000000002
1679343271340747466,0.248
1679343271348444760,0.269
1679343271356142054,0.28600000000000003
1679343271363839348,0.281
1679343271371536642,0.248
1679343271379233936,0.185
1679343271386931230,0.132
1679343271394628524,0.094
1679343271402325818,0.025
1679343271410023112,-0.067
1679343271417720406,-0.018000000000000002
1679343271425417700,0.147,,688
1679343271433114994,0.126
1679343271440812328,-0.13,87
1679343271448509413,-0.357
1679343271456206498,-0.222
1679343271463903583,0.212
1679343271471600668,0.599
1679343271479297753,0.5760000000000001
1679343271486994838,0.025
1679343271494691923,-0.397
1679343271502389008,-0.29
1679343271510086093,-0.113
1679343271517783178,-0.079
1679343271525480263,-0.031
1679343271533177348,-0.014
1679343271540874433,-0.063
1679343271548571518,-0.082
1679343271556268603,-0.073
1679343271563965688,-0.096
1679343271571662773,-0.117
1679343271579359858,-0.109
1679343271587056943,-0.10300000000000001
1679343271594754028,-0.1
1679343271602451113,-0.09
1679343271610148198,-0.07100000000000001
1679343271617845283,-0.061
1679343271625542368,-0.094
1679343271633239453,-0.128
1679343271640936538,-0.111
1679343271648633623,-0.07100000000000001
1679343271656330708,-0.058
1679343271664027793,-0.048
1679343271671724878,-0.016
1679343271679421963,0.008
1679343271687119048,0.018000000000000002
1679343271694816133,0.027
1679343271702513218,0.014
1679343271710210303,-0.096
1679343271717907388,-0.199
1679343271725604473,-0.132
1679343271733301558,0.004
1679343271740998643,0.065
1679343271748695728,0.021
1679343271756392813,-0.132
1679343271764089898,-0.336
1679343271771786983,-0.45
1679343271779484068,-0.399
1679343271787181153,-0.269
1679343271794878238,-0.132
1679343271802575323,-0.037
1679343271810272408,0.046
1679343271817969493,0.178
1679343271825666578,0.23500000000000001
1679343271833363663,0.183
1679343271841060748,0.176
1679343271848757833,0.212
1679343271856454918,0.216
1679343271864152003,0.193
1679343271871849088,0.161
1679343271879546173,0.155
1679343271887243258,0.183,,462
1679343271894940343,0.191
1679343271902637428,0.164
1679343271910334513,0.147
1679343271918031598,0.166
1679343271925728683,0.197
1679343271933425768,0.201
1679343271941122853,0.20800000000000002
1679343271948819938,0.233
1679343271956517023,0.227
1679343271964214108,0.199
1679343271971911193,0.178
1679343271979608278,0.126
1679343271987305363,0.084
1679343271995002448,0.088
1679343272002699570,0.094
1679343272010396934,0.088
1679343272018094298,0.096
1679343272025791662,0.117
1679343272033489026,0.14300000000000002
1679343272041186390,0.145
1679343272048883754,0.079
1679343272056581118,0.014
1679343272064278482,0.029
1679343272071975846,0.046
1679343272079673210,0.008
1679343272087370574,-0.016
1679343272095067938,-0.01
1679343272102765302,-0.004
1679343272110462666,-0.008
1679343272118160030,-0.029
1679343272125857394,-0.029
1679343272133554758,-0.014
1679343272141252122,-0.042
1679343272148949486,-0.067
1679343272156646850,0.027,,267
1679343272164344214,0.296
1679343272172041578,0.612
1679343272179738942,0.624
1679343272187436306,0.14300000000000002
1679343272195133670,-0.357
1679343272202831034,-0.361
1679343272210528398,-0.1
1679343272218225762,0.018000000000000002
1679343272225923126,0.012
1679343272233620490,-0.014
1679343272241317854,-0.039
1679343272249015218,-0.039
1679343272256712582,-0.027
1679343272264409946,-0.031
1679343272272107310,-0.027
1679343272279804674,-0.025
1679343272287502038,-0.029
1679343272295199402,-0.006
1679343272302896766,0.025
1679343272310594130,0.035
1679343272318291494,0.039
1679343272325988858,0.046
1679343272333686222,0.061
1679343272341383586,0.09
1679343272349080950,0.113
1679343272356778314,0.107
