ts,red,ir,green
1679343280569769,199012.0,231674.0,15930.0
1679343280580769,199036.0,231682.0,15906.0
1679343280589769,199065.0,231632.0,15940.0
1679343280599769,199091.0,231653.0,15936.0
1679343280609769,199120.0,231627.0,15946.0
1679343280620769,199123.0,231614.0,15960.0
1679343280630769,199107.0,231612.0,15960.0
1679343280639769,199118.0,231581.0,15964.0
1679343280649769,199139.0,231582.0,15959.0
1679343280660769,199205.0,231575.0,15934.0
1679343280670769,199214.0,231573.0,15954.0
1679343280679769,199248.0,231611.0,15962.0
1679343280690769,199246.0,231520.0,15979.0
1679343280700769,199254.0,231558.0,15969.0
1679343280709769,199265.0,231526.0,15981.0
1679343280719769,199297.0,231518.0,15957.0
1679343280730769,199296.0,231507.0,15973.0
1679343280740769,199305.0,231522.0,15981.0
1679343280750769,199295.0,231518.0,15979.0
1679343280759769,199298.0,231519.0,15980.0
1679343280771769,199310.0,231487.0,15986.0
1679343280779769,199306.0,231509.0,15975.0
1679343280790768,199284.0,231472.0,15976.0
1679343280799769,199272.0,231455.0,15981.0
1679343280810768,199261.0,231500.0,15974.0
1679343280819769,199253.0,231538.0,15971.0
1679343280830768,199251.0,231549.0,15973.0
1679343280839769,199240.0,231544.0,15951.0
1679343280849769,199213.0,231559.0,15958.0
1679343280859769,199181.0,231558.0,15973.0
1679343280871769,199178.0,231563.0,15959.0
1679343280880769,199164.0,231472.0,15947.0
1679343280889769,199122.0,231591.0,15961.0
1679343280899769,199153.0,231591.0,15940.0
1679343280910769,199118.0,231611.0,15943.0
1679343280920769,199078.0,231594.0,15942.0
1679343280929769,199098.0,231613.0,15933.0
1679343280939769,199077.0,231611.0,15930.0
1679343280950769,199042.0,231619.0,15942.0
1679343280960769,199037.0,231624.0,15932.0
1679343280969769,199030.0,231648.0,15926.0
1679343280979769,198992.0,231633.0,15928.0
1679343280990769,198989.0,231637.0,15892.0
1679343280999769,198975.0,231630.0,15903.0
1679343281009769,198932.0,231630.0,15888.0
1679343281019769,198860.0,231644.0,15895.0
1679343281030769,198826.0,231641.0,15862.0
1679343281039769,198850.0,231653.0,15875.0
1679343281049769,198816.0,231674.0,15855.0
1679343281059769,198792.0,231690.0,15881.0
1679343281070769,198774.0,231679.0,15881.0
1679343281079769,198820.0,231718.0,15870.0
1679343281089769,198851.0,231720.0,15847.0
1679343281099769,198862.0,231729.0,15873.0
1679343281110769,198853.0,231746.0,15888.0
1679343281119769,198864.0,231760.0,15883.0
1679343281130769,198869.0,231774.0,15884.0
1679343281139769,198883.0,231763.0,15893.0
1679343281150769,198898.0,231786.0,15895.0
1679343281159769,198904.0,231796.0,15892.0
1679343281170769,198921.0,231810.0,15885.0
1679343281179769,198937.0,231834.0,15890.0
1679343281189769,198897.0,231818.0,15876.0
1679343281199769,198905.0,231842.0,15907.0
1679343281210769,198918.0,231852.0,15911.0
1679343281219769,198919.0,231843.0,15906.0
1679343281229769,198943.0,231859.0,15898.0
1679343281239769,198969.0,231859.0,15895.0
1679343281250769,198948.0,231874.0,15911.0
1679343281259769,198986.0,231882.0,15906.0
1679343281269769,198990.0,231882.0,15899.0
1679343281279769,198961.0,231915.0,15903.0
1679343281290768,199006.0,231885.0,15907.0
1679343281299769,198999.0,231890.0,15904.0
1679343281309769,198989.0,231897.0,15892.0
1679343281319769,198974.0,231893.0,15902.0
1679343281330768,198954.0,231915.0,15902.0
1679343281339769,198963.0,231881.0,15896.0
1679343281349769,198937.0,231922.0,15898.0
1679343281359768,198920.0,231874.0,15893.0
1679343281370768,198934.0,231898.0,15881.0
1679343281379768,198942.0,231905.0,15876.0
1679343281389768,198933.0,231893.0,15851.0
1679343281399769,198918.0,231904.0,15876.0
1679343281410769,198849.0,231900.0,15876.0
1679343281419769,198864.0,231919.0,15873.0
1679343281429769,198844.0,231918.0,15867.0
1679343281439769,198823.0,231858.0,15856.0
1679343281450769,198801.0,231848.0,15856.0
1679343281460769,198783.0,231859.0,15846.0
1679343281469769,198749.0,231874.0,15844.0
1679343281479769,198729.0,231848.0,15839.0
1679343281490769,198697.0,231908.0,15835.0
1679343281499769,198674.0,231893.0,15827.0
1679343281509769,198629.0,231903.0,15834.0
1679343281519769,198576.0,231896.0,15834.0
1679343281530768,198609.0,231891.0,15822.0
1679343281539769,198558.0,231875.0,15833.0
1679343281549769,198542.0,231905.0,15832.0
1679343281559769,198555.0,231892.0,15812.0
1679343281570768,198549.0,231906.0,15809.0
1679343281579769,198515.0,231901.0,15809.0
1679343281589769,198471.0,231904.0,15800.0
1679343281599769,198476.0,231920.0,15792.0
1679343281609769,198445.0,231938.0,15803.0
1679343281619769,198439.0,231927.0,15804.0
1679343281630769,198437.0,231933.0,15785.0
1679343281639769,198401.0,231929.0,15783.0
1679343281649769,198393.0,231873.0,15772.0
1679343281659769,198339.0,231904.0,15760.0
1679343281670769,198295.0,231899.0,15767.0
1679343281679769,198258.0,231934.0,15757.0
1679343281689769,198214.0,231919.0,15755.0
1679343281699769,198155.0,231911.0,15743.0
1679343281710769,198136.0,231946.0,15728.0
1679343281719769,198091.0,231936.0,15728.0
1679343281729769,198044.0,231951.0,15729.0
1679343281739769,198058.0,231960.0,15710.0
1679343281750769,198015.0,231959.0,15705.0
1679343281759769,197951.0,231953.0,15706.0
1679343281769769,197965.0,231957.0,15704.0
1679343281779769,197933.0,231933.0,15690.0
1679343281790769,197930.0,231988.0,15685.0
1679343281799769,197902.0,231992.0,15685.0
1679343281809769,197881.0,231999.0,15688.0
1679343281819769,197886.0,232042.0,15683.0
1679343281830769,197871.0,232014.0,15685.0
1679343281839769,197857.0,231996.0,15676.0
1679343281849769,197861.0,231980.0,15661.0
1679343281859769,197845.0,231999.0,15664.0
1679343281870769,197824.0,232049.0,15670.0
1679343281879769,197810.0,232097.0,15661.0
1679343281889769,197809.0,232109.0,15656.0
1679343281899769,197736.0,232138.0,15654.0
1679343281909769,197706.0,232130.0,15657.0
1679343281919769,197675.0,232145.0,15652.0
1679343281929769,197698.0,232148.0,15629.0
1679343281939769,197701.0,232166.0,15604.0
1679343281949769,197680.0,232187.0,15603.0
1679343281959769,197598.0,232206.0,15631.0
1679343281969769,197602.0,232209.0,15631.0
1679343281979769,197586.0,232212.0,15623.0
1679343281989769,197576.0,232245.0,15617.0
1679343281999769,197596.0,232245.0,15618.0
1679343282009769,197543.0,232264.0,15625.0
1679343282019769,197517.0,232269.0,15612.0
1679343282029769,197524.0,232284.0,15618.0
1679343282039769,197528.0,232282.0,15593.0
1679343282049769,197548.0,232331.0,15570.0
1679343282058769,197547.0,232339.0,15581.0
1679343282069769,197510.0,232363.0,15568.0
1679343282080768,197530.0,232375.0,15582.0
1679343282089769,197538.0,232404.0,15591.0
1679343282099769,197502.0,232394.0,15588.0
1679343282109768,197491.0,232413.0,15586.0
1679343282120769,197455.0,232413.0,15587.0
1679343282130769,197440.0,232406.0,15571.0
1679343282138769,197433.0,232418.0,15563.0
1679343282149768,197414.0,232415.0,15554.0
1679343282159768,197371.0,232431.0,15534.0
1679343282170768,197364.0,232419.0,15522.0
1679343282180768,197335.0,232421.0,15543.0
1679343282189768,197268.0,232450.0,15598.0
1679343282199768,197293.0,232425.0,15515.0
1679343282209768,197281.0,232442.0,15530.0
1679343282219768,197252.0,232434.0,15542.0
1679343282229768,197229.0,232428.0,15548.0
1679343282240768,197194.0,232433.0,15541.0
1679343282249768,197193.0,232446.0,15533.0
1679343282259768,197179.0,232438.0,15539.0
1679343282269768,197180.0,232393.0,15540.0
1679343282281768,197177.0,232440.0,15534.0
1679343282289768,197161.0,232427.0,15527.0
1679343282299769,197157.0,232437.0,15538.0
1679343282309769,197152.0,232422.0,15546.0
1679343282319769,197162.0,232376.0,15544.0
1679343282329769,197142.0,232351.0,15528.0
1679343282339769,197116.0,232361.0,15521.0
1679343282349769,197125.0,232357.0,15541.0
1679343282359769,197115.0,232395.0,15530.0
1679343282369769,197125.0,232339.0,15526.0
1679343282381769,197119.0,232335.0,15521.0
1679343282388769,197134.0,232316.0,15522.0
1679343282399769,197160.0,232381.0,15546.0
1679343282409769,197193.0,232399.0,15529.0
1679343282420769,197223.0,232394.0,15538.0
1679343282428768,197247.0,232380.0,15545.0
1679343282439768,197257.0,232383.0,15562.0
1679343282449768,197284.0,232388.0,15566.0
1679343282460768,197357.0,232392.0,15559.0
1679343282468768,197340.0,232362.0,15583.0
1679343282479769,197377.0,232354.0,15588.0
1679343282489769,197443.0,232357.0,15584.0
1679343282500769,197492.0,232346.0,15597.0
1679343282508768,197494.0,232353.0,15610.0
1679343282519768,197557.0,232361.0,15607.0
1679343282529768,197574.0,232348.0,15614.0
1679343282539768,197583.0,232347.0,15625.0
1679343282548768,197645.0,232340.0,15616.0
1679343282559768,197666.0,232344.0,15627.0
1679343282569768,197641.0,232310.0,15635.0
1679343282579768,197696.0,232354.0,15624.0
1679343282588768,197688.0,232310.0,15635.0
1679343282599768,197742.0,232292.0,15604.0
1679343282609768,197698.0,232283.0,15641.0
1679343282619768,197748.0,232281.0,15610.0
1679343282629768,197724.0,232285.0,15605.0
1679343282639768,197745.0,232271.0,15597.0
1679343282648768,197746.0,232254.0,15624.0
1679343282659769,197755.0,232240.0,15627.0
1679343282669769,197755.0,232216.0,15609.0
1679343282679769,197706.0,232206.0,15638.0
1679343282688769,197699.0,232208.0,15612.0
1679343282699769,197670.0,232177.0,15586.0
1679343282709769,197629.0,232167.0,15615.0
1679343282719769,197612.0,232160.0,15603.0
1679343282729769,197586.0,232138.0,15623.0
1679343282739769,197590.0,232154.0,15620.0
1679343282749769,197582.0,232144.0,15622.0
1679343282759769,197597.0,232149.0,15619.0
1679343282768769,197609.0,232174.0,15618.0
1679343282779769,197605.0,232150.0,15617.0
1679343282789769,197630.0,232059.0,15642.0
1679343282799769,197597.0,232111.0,15636.0
1679343282808769,197610.0,232104.0,15635.0
1679343282819769,197652.0,232099.0,15643.0
1679343282829769,197670.0,232108.0,15626.0
1679343282839769,197735.0,232084.0,15605.0
1679343282848769,197696.0,232080.0,15655.0
1679343282859769,197771.0,232122.0,15663.0
1679343282869769,197783.0,232093.0,15663.0
1679343282880769,197807.0,232034.0,15670.0
1679343282888769,197810.0,232011.0,15661.0
1679343282899768,197831.0,232102.0,15661.0
1679343282909768,197834.0,232044.0,15669.0
1679343282920768,197848.0,232077.0,15671.0
1679343282928768,197852.0,232089.0,15670.0
1679343282939768,197871.0,232045.0,15662.0
1679343282949768,197869.0,232022.0,15664.0
1679343282960768,197869.0,232061.0,15690.0
1679343282968768,197878.0,231981.0,15690.0
1679343282979768,197884.0,232006.0,15671.0
1679343282989768,197871.0,231990.0,15672.0
1679343282999768,197866.0,232034.0,15664.0
1679343283008768,197867.0,232018.0,15665.0
1679343283019769,197808.0,231998.0,15658.0
1679343283029769,197780.0,231969.0,15666.0
1679343283039769,197815.0,231961.0,15673.0
1679343283048769,197808.0,231952.0,15671.0
1679343283059769,197830.0,231885.0,15673.0
1679343283069769,197852.0,231875.0,15673.0
1679343283079769,197878.0,231915.0,15667.0
1679343283088769,197919.0,231880.0,15689.0
1679343283099769,197973.0,231923.0,15683.0
1679343283108769,198014.0,231930.0,15701.0
1679343283119769,198036.0,231925.0,15700.0
1679343283129769,198048.0,231943.0,15728.0
1679343283139769,198072.0,231907.0,15733.0
1679343283148769,198155.0,231898.0,15739.0
1679343283159769,198180.0,231900.0,15731.0
1679343283169769,198226.0,231904.0,15743.0
1679343283179769,198267.0,231904.0,15756.0
1679343283189769,198256.0,231884.0,15753.0
1679343283199769,198275.0,231896.0,15755.0
1679343283209769,198300.0,231846.0,15772.0
1679343283219769,198367.0,231841.0,15786.0
1679343283228769,198392.0,231815.0,15774.0
1679343283239769,198415.0,231763.0,15776.0
1679343283249769,198417.0,231793.0,15772.0
1679343283259769,198413.0,231806.0,15782.0
1679343283268769,198439.0,231766.0,15777.0
1679343283279769,198426.0,231766.0,15784.0
1679343283290768,198449.0,231753.0,15784.0
1679343283299769,198431.0,231751.0,15772.0
1679343283308769,198440.0,231723.0,15786.0
1679343283319769,198435.0,231758.0,15780.0
1679343283329769,198431.0,231735.0,15788.0
1679343283338769,198443.0,231776.0,15777.0
1679343283348769,198437.0,231770.0,15778.0
1679343283359768,198430.0,231701.0,15782.0
1679343283369768,198427.0,231729.0,15779.0
1679343283380769,198422.0,231751.0,15781.0
1679343283388769,198419.0,231691.0,15774.0
1679343283399768,198427.0,231734.0,15784.0
1679343283409768,198394.0,231702.0,15765.0
1679343283419768,198403.0,231708.0,15775.0
1679343283428768,198417.0,231677.0,15780.0
1679343283439768,198414.0,231661.0,15779.0
1679343283449768,198410.0,231731.0,15774.0
1679343283459768,198411.0,231713.0,15787.0
1679343283468768,198423.0,231689.0,15779.0
1679343283479768,198447.0,231723.0,15785.0
1679343283489768,198445.0,231723.0,15793.0
1679343283499768,198431.0,231725.0,15780.0
1679343283508768,198418.0,231675.0,15789.0
1679343283519768,198428.0,231741.0,15783.0
1679343283529768,198427.0,231732.0,15770.0
1679343283539768,198434.0,231684.0,15791.0
1679343283548768,198427.0,231686.0,15770.0
1679343283559769,198396.0,231719.0,15766.0
1679343283569769,198408.0,231748.0,15778.0
1679343283578769,198396.0,231754.0,15763.0
1679343283588769,198411.0,231750.0,15743.0
1679343283599769,198344.0,231782.0,15758.0
1679343283609769,198375.0,231770.0,15760.0
1679343283619769,198355.0,231781.0,15766.0
1679343283629769,198308.0,231796.0,15764.0
1679343283638769,198276.0,231794.0,15771.0
1679343283649769,198282.0,231793.0,15733.0
1679343283658769,198286.0,231808.0,15725.0
1679343283669769,198285.0,231834.0,15726.0
1679343283678769,198283.0,231839.0,15733.0
1679343283689769,198217.0,231835.0,15706.0
1679343283699769,198204.0,231828.0,15717.0
1679343283709769,198168.0,231823.0,15716.0
1679343283719769,198099.0,231818.0,15718.0
1679343283728769,198076.0,231801.0,15696.0
1679343283739769,198052.0,231811.0,15687.0
1679343283749769,198024.0,231843.0,15700.0
1679343283758769,198011.0,231840.0,15660.0
1679343283769769,197994.0,231836.0,15664.0
1679343283778769,197925.0,231883.0,15685.0
1679343283789769,197945.0,231893.0,15689.0
1679343283798769,197952.0,231887.0,15688.0
1679343283808769,197958.0,231929.0,15688.0
1679343283818769,197943.0,231946.0,15693.0
1679343283829769,197967.0,231931.0,15697.0
1679343283838769,198000.0,231986.0,15696.0
1679343283848769,197981.0,231988.0,15695.0
1679343283858769,198002.0,231978.0,15695.0
1679343283869768,198063.0,231998.0,15684.0
1679343283879768,198079.0,232012.0,15690.0
1679343283888769,198081.0,232008.0,15697.0
1679343283898769,198076.0,232022.0,15698.0
1679343283909768,198117.0,232002.0,15664.0
1679343283919769,198120.0,231995.0,15675.0
1679343283928769,198076.0,232013.0,15705.0
1679343283938769,198105.0,232013.0,15706.0
1679343283949769,198108.0,232011.0,15702.0
1679343283959769,198107.0,232010.0,15697.0
1679343283968769,198089.0,232028.0,15695.0
1679343283978769,198058.0,232001.0,15707.0
1679343283989769,198094.0,231987.0,15708.0
1679343283998769,198089.0,231991.0,15693.0
1679343284008769,198086.0,231990.0,15679.0
1679343284018769,198058.0,232001.0,15702.0
1679343284029769,198088.0,231999.0,15704.0
1679343284038769,198097.0,231987.0,15682.0
1679343284048769,198065.0,232002.0,15705.0
1679343284058769,198077.0,231991.0,15700.0
1679343284069769,198060.0,231963.0,15697.0
1679343284078769,198090.0,231993.0,15707.0
1679343284088769,198090.0,231975.0,15721.0
1679343284098769,198103.0,231956.0,15717.0
1679343284109769,198157.0,231960.0,15668.0
1679343284118769,198129.0,231963.0,15717.0
1679343284129769,198129.0,231942.0,15720.0
1679343284138769,198167.0,231966.0,15722.0
1679343284149769,198163.0,231959.0,15730.0
1679343284158769,198148.0,231916.0,15738.0
1679343284169769,198202.0,231947.0,15716.0
1679343284178769,198212.0,231939.0,15719.0
1679343284189769,198181.0,231931.0,15728.0
1679343284198769,198189.0,231925.0,15726.0
1679343284209769,198220.0,231875.0,15690.0
1679343284218769,198205.0,231895.0,15698.0
1679343284228769,198208.0,231899.0,15691.0
1679343284239769,198201.0,231898.0,15716.0
1679343284249769,198191.0,231908.0,15706.0
1679343284258769,198155.0,231960.0,15701.0
1679343284268769,198161.0,231943.0,15677.0
1679343284278769,198157.0,231923.0,15689.0
1679343284289769,198117.0,231921.0,15696.0
1679343284298769,198126.0,231953.0,15694.0
1679343284308769,198131.0,231907.0,15672.0
1679343284318769,198070.0,231968.0,15699.0
1679343284329769,198086.0,231986.0,15695.0
1679343284338769,198085.0,231979.0,15675.0
1679343284348769,198025.0,231955.0,15695.0
1679343284358769,198048.0,231952.0,15691.0
1679343284369768,198064.0,231919.0,15663.0
1679343284378769,198079.0,231942.0,15662.0
1679343284388769,198046.0,231905.0,15648.0
1679343284399768,198020.0,231878.0,15658.0
1679343284408769,198003.0,231944.0,15678.0
1679343284419768,197950.0,231843.0,15674.0
1679343284428768,197912.0,231785.0,15659.0
1679343284439768,197891.0,231814.0,15659.0
1679343284448768,197886.0,231847.0,15671.0
1679343284459769,197876.0,231872.0,15661.0
1679343284468769,197868.0,231830.0,15664.0
1679343284479769,197871.0,231843.0,15668.0
1679343284488769,197886.0,231822.0,15659.0
1679343284499769,197890.0,231819.0,15660.0
1679343284508769,197913.0,231893.0,15657.0
1679343284518769,197926.0,231913.0,15659.0
1679343284528769,197943.0,231864.0,15667.0
1679343284539769,197961.0,231902.0,15680.0
1679343284548769,197985.0,231898.0,15679.0
1679343284558769,197992.0,231869.0,15671.0
1679343284568769,198024.0,231861.0,15690.0
1679343284579769,198046.0,231918.0,15684.0
1679343284588769,198053.0,231858.0,15677.0
1679343284600769,198061.0,231897.0,15696.0
1679343284608769,198083.0,231909.0,15690.0
1679343284619768,198033.0,231912.0,15694.0
1679343284628769,198052.0,231898.0,15704.0
1679343284638769,198067.0,231892.0,15675.0
1679343284648769,198063.0,231899.0,15703.0
1679343284659769,198076.0,231896.0,15684.0
1679343284669769,198078.0,231873.0,15682.0
1679343284678769,198069.0,231850.0,15689.0
1679343284688769,198058.0,231826.0,15679.0
1679343284698769,198051.0,231880.0,15681.0
1679343284709769,197997.0,231889.0,15703.0
1679343284718769,198045.0,231863.0,15688.0
1679343284728769,198056.0,231886.0,15668.0
1679343284739769,198045.0,231874.0,15686.0
1679343284749769,198012.0,231888.0,15683.0
1679343284758769,198011.0,231886.0,15683.0
1679343284768769,198002.0,231878.0,15668.0
1679343284779769,197998.0,231877.0,15680.0
1679343284789769,197994.0,231847.0,15672.0
1679343284798769,197965.0,231897.0,15667.0
1679343284808769,197950.0,231904.0,15658.0
1679343284819769,197929.0,231936.0,15662.0
1679343284828769,197910.0,231934.0,15661.0
1679343284838769,197896.0,231865.0,15650.0
1679343284848769,197879.0,231895.0,15646.0
1679343284859769,197881.0,231966.0,15651.0
1679343284868769,197866.0,231945.0,15648.0
1679343284878769,197860.0,231974.0,15638.0
1679343284888769,197811.0,232002.0,15643.0
1679343284898769,197768.0,232009.0,15634.0
1679343284908769,197741.0,232011.0,15633.0
1679343284918769,197769.0,232008.0,15600.0
1679343284928769,197765.0,232010.0,15598.0
1679343284938769,197729.0,232013.0,15605.0
1679343284948769,197705.0,232028.0,15584.0
1679343284959769,197689.0,232055.0,15599.0
1679343284968769,197676.0,232066.0,15580.0
1679343284979769,197636.0,232086.0,15595.0
1679343284988769,197604.0,232086.0,15590.0
1679343284999769,197589.0,232110.0,15597.0
1679343285008769,197563.0,232117.0,15578.0
1679343285018769,197522.0,232143.0,15569.0
1679343285028769,197509.0,232140.0,15565.0
1679343285038769,197484.0,232144.0,15526.0
1679343285048769,197477.0,232160.0,15530.0
1679343285058769,197434.0,232210.0,15549.0
1679343285068769,197387.0,232216.0,15539.0
1679343285078769,197326.0,232195.0,15528.0
1679343285088769,197274.0,232205.0,15530.0
1679343285098769,197252.0,232232.0,15513.0
1679343285108769,197194.0,232203.0,15502.0
1679343285118769,197178.0,232171.0,15511.0
1679343285129768,197133.0,232221.0,15490.0
1679343285138769,197108.0,232192.0,15487.0
1679343285148769,197060.0,232213.0,15499.0
1679343285158769,197076.0,232198.0,15472.0
1679343285169768,197063.0,232192.0,15480.0
1679343285178769,197052.0,232198.0,15474.0
1679343285189769,197091.0,232178.0,15481.0
1679343285198769,197095.0,232195.0,15485.0
1679343285209769,197088.0,232197.0,15483.0
1679343285218769,197110.0,232163.0,15493.0
1679343285228769,197126.0,232160.0,15505.0
1679343285238769,197141.0,232179.0,15490.0
1679343285249769,197152.0,232215.0,15498.0
1679343285258769,197166.0,232229.0,15499.0
1679343285268769,197183.0,232227.0,15505.0
1679343285278769,197212.0,232216.0,15497.0
1679343285288769,197207.0,232210.0,15496.0
1679343285298769,197235.0,232230.0,15508.0
1679343285308769,197235.0,232222.0,15502.0
1679343285318769,197242.0,232261.0,15502.0
1679343285329769,197216.0,232174.0,15509.0
1679343285338769,197217.0,232165.0,15502.0
1679343285348769,197186.0,232137.0,15499.0
1679343285358769,197164.0,232181.0,15507.0
1679343285368769,197155.0,232175.0,15509.0
1679343285379769,197164.0,232183.0,15486.0
1679343285387769,197137.0,232169.0,15488.0
1679343285398769,197066.0,232203.0,15500.0
1679343285409768,197072.0,232164.0,15482.0
1679343285419768,197082.0,232228.0,15481.0
1679343285427768,197043.0,232182.0,15494.0
1679343285438768,197024.0,232200.0,15486.0
1679343285448768,196998.0,232165.0,15486.0
1679343285459768,197024.0,232176.0,15484.0
1679343285467768,197012.0,232156.0,15490.0
1679343285478768,197037.0,232148.0,15457.0
1679343285488768,197028.0,232141.0,15461.0
1679343285498768,197042.0,232158.0,15441.0
1679343285508768,197038.0,232145.0,15456.0
1679343285518768,197003.0,232223.0,15460.0
1679343285529768,197022.0,232126.0,15475.0
1679343285538769,196999.0,232137.0,15472.0
1679343285547769,196986.0,232133.0,15480.0
1679343285558769,196992.0,232131.0,15441.0
1679343285568769,196998.0,232131.0,15445.0
1679343285578769,196961.0,232151.0,15468.0
1679343285588769,196917.0,232144.0,15475.0
1679343285598769,196917.0,232141.0,15462.0
1679343285609768,196948.0,232128.0,15451.0
1679343285619768,196928.0,232136.0,15453.0
1679343285628769,196912.0,232118.0,15456.0
1679343285638769,196919.0,232105.0,15463.0
1679343285648769,196901.0,232102.0,15454.0
1679343285659768,196907.0,232120.0,15442.0
1679343285668769,196905.0,232077.0,15457.0
1679343285678768,196900.0,232088.0,15463.0
1679343285688768,196893.0,232055.0,15436.0
1679343285699768,196882.0,232129.0,15454.0
1679343285710768,196894.0,232086.0,15455.0
1679343285718769,196879.0,232085.0,15479.0
1679343285728769,196855.0,232152.0,15432.0
1679343285738769,196852.0,232098.0,15442.0
1679343285748769,196823.0,232071.0,15435.0
1679343285758769,196785.0,232085.0,15434.0
1679343285768769,196771.0,232046.0,15422.0
1679343285778769,196738.0,232041.0,15417.0
1679343285788769,196677.0,232086.0,15428.0
1679343285797769,196648.0,232047.0,15410.0
1679343285808769,196658.0,232052.0,15389.0
1679343285818769,196624.0,232065.0,15409.0
1679343285828769,196666.0,232064.0,15368.0
1679343285838769,196660.0,232047.0,15384.0
1679343285848769,196691.0,232055.0,15382.0
1679343285858769,196694.0,232106.0,15410.0
1679343285868769,196720.0,232066.0,15421.0
1679343285878769,196729.0,232099.0,15397.0
1679343285888769,196737.0,232097.0,15402.0
1679343285898769,196747.0,232084.0,15404.0
1679343285908769,196761.0,232094.0,15400.0
1679343285918769,196733.0,232111.0,15432.0
1679343285928769,196777.0,232112.0,15416.0
1679343285937769,196780.0,232137.0,15401.0
1679343285948769,196791.0,232131.0,15405.0
1679343285958769,196797.0,232128.0,15410.0
1679343285968769,196771.0,232152.0,15421.0
1679343285977769,196731.0,232136.0,15421.0
1679343285988769,196715.0,232142.0,15425.0
1679343285998769,196756.0,232215.0,15409.0
1679343286008769,196733.0,232186.0,15414.0
1679343286017769,196687.0,232179.0,15416.0
1679343286028769,196655.0,232161.0,15419.0
1679343286038769,196633.0,232138.0,15398.0
1679343286048769,196640.0,232160.0,15373.0
1679343286057769,196618.0,232169.0,15350.0
1679343286068769,196600.0,232163.0,15350.0
1679343286078769,196582.0,232165.0,15361.0
1679343286088769,196506.0,232177.0,15387.0
1679343286097769,196506.0,232183.0,15360.0
1679343286108769,196496.0,232194.0,15367.0
1679343286118769,196437.0,232195.0,15369.0
1679343286128769,196423.0,232180.0,15315.0
1679343286137769,196409.0,232188.0,15337.0
1679343286148769,196343.0,232205.0,15347.0
1679343286158769,196332.0,232206.0,15329.0
1679343286169768,196345.0,232211.0,15310.0
1679343286177768,196328.0,232212.0,15334.0
1679343286188768,196317.0,232222.0,15337.0
1679343286198768,196308.0,232222.0,15342.0
1679343286209768,196282.0,232199.0,15328.0
1679343286217768,196275.0,232208.0,15330.0
1679343286228768,196230.0,232244.0,15338.0
1679343286238768,196227.0,232212.0,15333.0
1679343286248768,196225.0,232217.0,15322.0
1679343286257769,196224.0,232225.0,15321.0
1679343286268769,196239.0,232235.0,15318.0
1679343286278769,196239.0,232213.0,15303.0
1679343286288769,196213.0,232238.0,15313.0
1679343286297769,196236.0,232213.0,15309.0
1679343286308769,196242.0,232202.0,15328.0
1679343286318769,196250.0,232212.0,15328.0
1679343286328769,196260.0,232238.0,15313.0
1679343286338769,196278.0,232251.0,15325.0
1679343286348769,196290.0,232242.0,15324.0
1679343286358769,196297.0,232273.0,15321.0
1679343286368769,196286.0,232264.0,15332.0
1679343286378769,196282.0,232251.0,15326.0
1679343286388769,196276.0,232264.0,15332.0
1679343286398769,196274.0,232239.0,15328.0
1679343286408769,196257.0,232205.0,15324.0
1679343286418769,196228.0,232217.0,15320.0
1679343286428768,196201.0,232237.0,15313.0
1679343286438769,196168.0,232233.0,15304.0
1679343286448769,196131.0,232233.0,15295.0
1679343286458769,196108.0,232157.0,15298.0
1679343286467769,196090.0,232169.0,15286.0
1679343286478769,196092.0,232218.0,15274.0
1679343286488769,196077.0,232185.0,15294.0
1679343286498769,196072.0,232182.0,15281.0
1679343286507769,196029.0,232219.0,15295.0
1679343286518769,196025.0,232212.0,15282.0
1679343286527769,196011.0,232230.0,15264.0
1679343286538769,196075.0,232192.0,15265.0
1679343286548769,196077.0,232205.0,15284.0
1679343286557769,196076.0,232209.0,15287.0
1679343286568769,196070.0,232204.0,15290.0
1679343286578769,196091.0,232200.0,15280.0
1679343286588769,196105.0,232193.0,15292.0
1679343286597769,196102.0,232222.0,15286.0
1679343286608769,196109.0,232227.0,15291.0
1679343286618769,196101.0,232230.0,15299.0
1679343286629769,196122.0,232231.0,15267.0
1679343286637769,196116.0,232214.0,15286.0
1679343286647769,196107.0,232211.0,15295.0
1679343286658769,196122.0,232213.0,15247.0
1679343286668769,196107.0,232206.0,15272.0
1679343286678768,196109.0,232196.0,15277.0
1679343286687769,196087.0,232220.0,15297.0
1679343286698768,196087.0,232204.0,15279.0
1679343286708768,196082.0,232198.0,15291.0
1679343286719768,196082.0,232184.0,15289.0
1679343286727768,196089.0,232171.0,15285.0
1679343286738768,196104.0,232175.0,15262.0
1679343286748768,196088.0,232157.0,15267.0
1679343286757768,196118.0,232149.0,15273.0
1679343286767768,196135.0,232133.0,15302.0
1679343286778768,196132.0,232137.0,15295.0
1679343286787768,196156.0,232129.0,15286.0
1679343286797769,196161.0,232133.0,15297.0
1679343286807769,196157.0,232120.0,15298.0
1679343286820769,196125.0,232134.0,15308.0
1679343286828769,196096.0,232134.0,15314.0
1679343286838769,196115.0,232151.0,15306.0
1679343286847769,196100.0,232145.0,15313.0
1679343286858769,196126.0,232154.0,15280.0
1679343286868769,196102.0,232162.0,15305.0
1679343286878769,196065.0,232156.0,15305.0
1679343286887769,196069.0,232124.0,15290.0
1679343286898769,196049.0,232145.0,15289.0
1679343286908769,196053.0,232145.0,15275.0
1679343286920769,196028.0,232199.0,15283.0
1679343286927769,196022.0,232175.0,15278.0
1679343286938768,196024.0,232216.0,15289.0
1679343286947769,195990.0,232210.0,15289.0
1679343286958768,195986.0,232257.0,15291.0
1679343286967769,195952.0,232217.0,15286.0
1679343286978769,195963.0,232200.0,15287.0
1679343286987769,195935.0,232203.0,15284.0
1679343286998769,195990.0,232236.0,15275.0
1679343287007769,195981.0,232217.0,15283.0
1679343287018769,195969.0,232224.0,15298.0
1679343287027769,195940.0,232212.0,15285.0
1679343287038769,195985.0,232182.0,15247.0
1679343287047769,195968.0,232141.0,15273.0
1679343287058769,195954.0,232125.0,15268.0
1679343287067769,195944.0,232109.0,15262.0
1679343287078769,195940.0,232103.0,15271.0
1679343287088769,195908.0,232071.0,15266.0
1679343287098769,195880.0,232096.0,15257.0
1679343287107769,195869.0,232024.0,15262.0
1679343287118769,195843.0,232007.0,15244.0
1679343287128769,195835.0,231963.0,15244.0
1679343287138769,195841.0,231978.0,15258.0
1679343287147769,195849.0,231950.0,15260.0
1679343287158769,195887.0,231970.0,15267.0
1679343287168769,195939.0,231976.0,15276.0
1679343287177769,195982.0,231997.0,15256.0
1679343287188769,196027.0,231987.0,15271.0
1679343287197769,196064.0,231965.0,15305.0
1679343287208769,196125.0,231994.0,15314.0
1679343287217769,196170.0,232007.0,15320.0
1679343287228769,196206.0,231994.0,15329.0
1679343287237769,196229.0,231990.0,15314.0
1679343287248769,196243.0,232021.0,15350.0
1679343287257769,196275.0,232010.0,15339.0
1679343287268769,196313.0,231988.0,15359.0
1679343287277769,196337.0,231988.0,15347.0
1679343287288769,196359.0,232014.0,15356.0
1679343287297769,196376.0,232006.0,15359.0
1679343287308769,196383.0,231984.0,15365.0
1679343287317769,196403.0,232031.0,15359.0
1679343287328769,196378.0,232013.0,15366.0
1679343287338769,196363.0,232007.0,15364.0
1679343287348769,196367.0,232003.0,15367.0
1679343287357769,196348.0,231950.0,15351.0
1679343287368769,196318.0,231937.0,15337.0
1679343287378769,196324.0,231979.0,15351.0
1679343287388769,196292.0,231967.0,15352.0
1679343287397769,196282.0,231959.0,15344.0
1679343287407769,196257.0,231953.0,15326.0
1679343287418769,196262.0,231964.0,15309.0
1679343287427769,196255.0,231965.0,15322.0
1679343287437769,196261.0,231971.0,15346.0
1679343287448769,196248.0,231935.0,15334.0
1679343287458769,196262.0,231936.0,15337.0
1679343287467769,196268.0,231944.0,15331.0
1679343287477769,196284.0,231958.0,15336.0
1679343287487769,196281.0,231961.0,15343.0
1679343287498769,196301.0,231970.0,15339.0
1679343287507769,196318.0,231962.0,15347.0
1679343287517769,196309.0,231970.0,15340.0
1679343287527769,196304.0,231972.0,15328.0
1679343287538769,196290.0,231967.0,15333.0
1679343287547769,196292.0,231984.0,15347.0
1679343287557769,196274.0,231968.0,15313.0
1679343287567769,196257.0,231985.0,15303.0
1679343287578769,196250.0,231975.0,15314.0
1679343287588769,196162.0,231963.0,15339.0
1679343287597769,196150.0,231960.0,15331.0
1679343287607769,196155.0,231976.0,15322.0
1679343287618769,196156.0,231993.0,15340.0
1679343287627769,196118.0,231988.0,15329.0
1679343287637769,196158.0,231976.0,15294.0
1679343287647769,196162.0,231985.0,15287.0
1679343287658769,196163.0,231988.0,15292.0
1679343287667769,196151.0,231970.0,15305.0
1679343287677769,196147.0,231981.0,15285.0
1679343287687769,196152.0,231983.0,15288.0
1679343287698769,196173.0,231965.0,15291.0
1679343287707769,196161.0,231989.0,15289.0
1679343287717769,196152.0,232010.0,15342.0
1679343287727769,196144.0,232004.0,15332.0
1679343287738769,196240.0,231974.0,15326.0
1679343287747769,196172.0,231991.0,15342.0
1679343287757769,196218.0,231978.0,15326.0
1679343287767769,196259.0,231963.0,15351.0
1679343287778769,196291.0,231981.0,15347.0
1679343287787769,196293.0,231966.0,15344.0
1679343287797769,196293.0,231897.0,15344.0
1679343287807769,196280.0,231905.0,15344.0
1679343287818769,196261.0,231910.0,15340.0
1679343287827769,196278.0,231884.0,15350.0
1679343287838769,196290.0,231935.0,15308.0
1679343287847769,196300.0,231919.0,15343.0
1679343287857769,196324.0,231926.0,15347.0
1679343287867769,196323.0,231921.0,15368.0
1679343287878769,196358.0,231920.0,15370.0
1679343287887769,196425.0,231917.0,15372.0
1679343287898769,196465.0,231895.0,15374.0
1679343287907769,196502.0,231847.0,15392.0
1679343287918769,196519.0,231925.0,15396.0
1679343287928769,196573.0,231919.0,15392.0
1679343287937769,196589.0,231924.0,15391.0
1679343287947769,196625.0,231876.0,15407.0
1679343287958769,196622.0,231914.0,15403.0
1679343287967769,196643.0,231915.0,15412.0
1679343287977769,196650.0,231976.0,15414.0
1679343287987769,196677.0,231950.0,15414.0
1679343287998769,196691.0,231993.0,15419.0
1679343288007769,196687.0,232002.0,15417.0
1679343288017769,196684.0,231985.0,15420.0
1679343288028769,196678.0,231963.0,15413.0
1679343288038769,196675.0,231978.0,15405.0
1679343288047769,196669.0,231946.0,15372.0
1679343288057769,196671.0,231931.0,15392.0
1679343288067769,196648.0,231915.0,15380.0
1679343288078769,196586.0,231934.0,15407.0
1679343288087769,196580.0,231917.0,15403.0
1679343288097769,196589.0,231918.0,15383.0
1679343288107769,196559.0,231897.0,15397.0
1679343288118769,196555.0,231924.0,15400.0
1679343288129768,196556.0,231859.0,15392.0
1679343288137768,196542.0,231889.0,15401.0
1679343288147768,196514.0,231918.0,15388.0
1679343288158768,196511.0,231912.0,15376.0
1679343288167768,196505.0,231916.0,15377.0
1679343288177768,196481.0,231897.0,15371.0
1679343288187768,196485.0,231888.0,15381.0
1679343288197768,196472.0,231916.0,15369.0
1679343288207768,196446.0,231906.0,15374.0
1679343288217768,196451.0,231913.0,15375.0
1679343288227768,196447.0,231887.0,15380.0
1679343288237769,196440.0,231910.0,15379.0
1679343288247769,196402.0,231876.0,15368.0
1679343288257769,196435.0,231888.0,15369.0
1679343288267769,196402.0,231882.0,15367.0
1679343288277769,196422.0,231819.0,15352.0
1679343288287769,196407.0,231824.0,15363.0
1679343288297769,196414.0,231870.0,15361.0
1679343288307769,196429.0,231859.0,15347.0
1679343288317769,196398.0,231867.0,15367.0
1679343288327769,196411.0,231850.0,15351.0
1679343288338769,196397.0,231849.0,15337.0
1679343288347769,196384.0,231837.0,15366.0
1679343288357769,196387.0,231843.0,15382.0
1679343288367769,196406.0,231834.0,15318.0
1679343288377769,196402.0,231828.0,15351.0
1679343288387769,196412.0,231805.0,15328.0
1679343288397769,196396.0,231823.0,15345.0
1679343288407769,196401.0,231805.0,15333.0
1679343288417769,196415.0,231812.0,15353.0
1679343288427769,196394.0,231805.0,15338.0
1679343288437769,196380.0,231809.0,15367.0
1679343288447769,196413.0,231803.0,15345.0
1679343288457769,196399.0,231787.0,15343.0
1679343288467769,196397.0,231787.0,15339.0
1679343288477769,196407.0,231796.0,15359.0
1679343288487769,196395.0,231741.0,15365.0
1679343288497769,196383.0,231755.0,15358.0
1679343288507769,196375.0,231755.0,15361.0
1679343288517769,196351.0,231732.0,15351.0
1679343288527769,196304.0,231738.0,15352.0
1679343288537769,196294.0,231741.0,15336.0
1679343288547769,196269.0,231743.0,15354.0
1679343288557769,196227.0,231748.0,15340.0
1679343288567769,196216.0,231740.0,15333.0
1679343288577769,196211.0,231683.0,15337.0
1679343288588769,196223.0,231671.0,15330.0
1679343288597769,196194.0,231659.0,15327.0
1679343288607769,196224.0,231696.0,15341.0
1679343288617769,196234.0,231733.0,15330.0
1679343288627769,196247.0,231743.0,15326.0
1679343288637769,196241.0,231775.0,15343.0
1679343288647769,196242.0,231781.0,15326.0
1679343288657769,196270.0,231767.0,15312.0
1679343288667769,196262.0,231752.0,15350.0
1679343288677769,196281.0,231801.0,15347.0
1679343288687769,196295.0,231804.0,15350.0
1679343288697769,196301.0,231822.0,15329.0
1679343288707769,196300.0,231844.0,15347.0
1679343288717769,196309.0,231848.0,15339.0
1679343288727769,196268.0,231839.0,15348.0
1679343288737769,196236.0,231847.0,15343.0
1679343288747769,196279.0,231827.0,15325.0
1679343288757768,196265.0,231817.0,15316.0
1679343288767768,196221.0,231829.0,15322.0
1679343288777769,196196.0,231838.0,15318.0
1679343288787769,196174.0,231840.0,15308.0
1679343288797769,196098.0,231845.0,15321.0
1679343288807769,196066.0,231818.0,15315.0
1679343288817769,196071.0,231842.0,15307.0
1679343288827769,196065.0,231834.0,15306.0
1679343288838769,196054.0,231836.0,15284.0
1679343288846768,196011.0,231849.0,15284.0
1679343288857768,196054.0,231859.0,15298.0
1679343288867768,195996.0,231847.0,15303.0
1679343288878768,196018.0,231861.0,15299.0
1679343288886768,195993.0,231850.0,15287.0
1679343288897768,195984.0,231863.0,15295.0
1679343288907768,196009.0,231855.0,15294.0
1679343288918768,195992.0,231852.0,15287.0
1679343288926768,195976.0,231844.0,15279.0
1679343288937768,195984.0,231856.0,15285.0
1679343288947768,196049.0,231855.0,15281.0
1679343288957769,195996.0,231845.0,15252.0
1679343288966769,195979.0,231846.0,15246.0
1679343288977769,195944.0,231859.0,15292.0
1679343288987769,195925.0,231865.0,15288.0
1679343288997769,195974.0,231863.0,15283.0
1679343289006769,195973.0,231881.0,15283.0
1679343289017769,195965.0,231891.0,15278.0
1679343289027769,195959.0,231818.0,15281.0
1679343289037769,195955.0,231812.0,15273.0
1679343289047769,195932.0,231877.0,15267.0
1679343289057769,195929.0,231868.0,15280.0
1679343289067769,195912.0,231870.0,15284.0
1679343289077769,195909.0,231887.0,15269.0
1679343289087769,195889.0,231861.0,15274.0
1679343289097769,195904.0,231877.0,15271.0
1679343289107769,195897.0,231871.0,15277.0
1679343289117769,195869.0,231841.0,15269.0
1679343289127769,195876.0,231859.0,15265.0
1679343289138769,195883.0,231875.0,15272.0
1679343289147769,195891.0,231839.0,15259.0
1679343289157769,195889.0,231861.0,15256.0
1679343289167769,195879.0,231863.0,15268.0
1679343289177769,195894.0,231827.0,15273.0
1679343289187769,195920.0,231797.0,15274.0
1679343289197769,195919.0,231812.0,15274.0
1679343289207769,195869.0,231862.0,15281.0
1679343289216769,195868.0,231840.0,15287.0
1679343289227769,195874.0,231877.0,15295.0
1679343289237769,195911.0,231845.0,15268.0
1679343289247769,195893.0,231883.0,15263.0
1679343289256769,195906.0,231823.0,15236.0
1679343289267769,195857.0,231829.0,15240.0
1679343289276769,195841.0,231793.0,15228.0
1679343289287769,195817.0,231769.0,15217.0
1679343289297769,195781.0,231766.0,15240.0
1679343289307769,195747.0,231761.0,15211.0
1679343289317769,195752.0,231767.0,15223.0
1679343289327769,195740.0,231759.0,15224.0
1679343289338769,195733.0,231775.0,15234.0
1679343289347769,195722.0,231792.0,15243.0
1679343289356769,195718.0,231764.0,15258.0
1679343289367769,195724.0,231760.0,15266.0
1679343289377769,195733.0,231740.0,15249.0
1679343289387769,195792.0,231759.0,15248.0
1679343289396769,195808.0,231769.0,15252.0
1679343289407769,195822.0,231785.0,15254.0
1679343289417769,195807.0,231771.0,15266.0
1679343289427769,195813.0,231783.0,15274.0
1679343289436769,195830.0,231758.0,15271.0
1679343289447769,195875.0,231791.0,15269.0
1679343289457769,195880.0,231765.0,15264.0
1679343289466769,195899.0,231816.0,15239.0
1679343289476769,195873.0,231791.0,15269.0
1679343289487769,195884.0,231790.0,15267.0
1679343289497769,195877.0,231774.0,15267.0
1679343289507769,195819.0,231798.0,15282.0
1679343289516769,195860.0,231809.0,15264.0
1679343289527769,195836.0,231803.0,15253.0
1679343289537769,195805.0,231744.0,15260.0
1679343289547769,195791.0,231723.0,15257.0
1679343289556769,195754.0,231799.0,15241.0
1679343289567769,195729.0,231764.0,15242.0
1679343289577769,195707.0,231756.0,15237.0
1679343289588769,195693.0,231724.0,15241.0
1679343289596768,195667.0,231744.0,15229.0
1679343289607768,195642.0,231748.0,15228.0
1679343289617768,195628.0,231737.0,15223.0
1679343289628768,195607.0,231750.0,15218.0
1679343289636768,195590.0,231743.0,15216.0
1679343289647768,195594.0,231731.0,15213.0
1679343289657768,195568.0,231777.0,15211.0
1679343289667768,195553.0,231785.0,15201.0
1679343289676769,195543.0,231774.0,15202.0
1679343289687769,195525.0,231720.0,15203.0
1679343289697769,195521.0,231742.0,15205.0
1679343289707769,195523.0,231756.0,15201.0
1679343289716769,195544.0,231739.0,15178.0
1679343289726769,195544.0,231736.0,15193.0
1679343289737769,195532.0,231751.0,15205.0
1679343289747769,195501.0,231714.0,15200.0
1679343289756769,195467.0,231775.0,15193.0
1679343289766769,195459.0,231774.0,15199.0
1679343289777768,195469.0,231781.0,15185.0
1679343289787768,195452.0,231773.0,15189.0
1679343289797768,195419.0,231788.0,15186.0
1679343289806769,195434.0,231762.0,15186.0
1679343289817768,195429.0,231771.0,15174.0
1679343289827768,195390.0,231743.0,15192.0
1679343289837768,195403.0,231776.0,15170.0
1679343289846768,195395.0,231767.0,15169.0
1679343289857769,195391.0,231748.0,15149.0
1679343289867769,195368.0,231749.0,15146.0
1679343289877769,195345.0,231770.0,15183.0
1679343289886769,195316.0,231764.0,15176.0
1679343289897769,195301.0,231765.0,15170.0
1679343289906769,195304.0,231754.0,15168.0
1679343289917769,195300.0,231758.0,15164.0
1679343289926769,195333.0,231726.0,15169.0
1679343289937769,195331.0,231731.0,15165.0
1679343289946769,195342.0,231736.0,15163.0
1679343289957769,195335.0,231786.0,15157.0
1679343289966769,195318.0,231791.0,15160.0
1679343289977769,195290.0,231784.0,15156.0
1679343289986769,195300.0,231727.0,15167.0
1679343289997769,195291.0,231789.0,15161.0
1679343290006769,195294.0,231784.0,15158.0
1679343290017768,195279.0,231759.0,15148.0
1679343290026769,195258.0,231754.0,15153.0
1679343290037769,195246.0,231792.0,15148.0
1679343290047769,195212.0,231741.0,15140.0
1679343290057769,195199.0,231755.0,15120.0
1679343290066769,195138.0,231721.0,15138.0
1679343290077769,195107.0,231726.0,15119.0
1679343290087769,195103.0,231696.0,15117.0
1679343290096769,195068.0,231686.0,15109.0
1679343290107769,195059.0,231735.0,15110.0
1679343290116769,195077.0,231723.0,15097.0
1679343290127769,195065.0,231742.0,15079.0
1679343290136769,195097.0,231728.0,15108.0
1679343290146769,195114.0,231753.0,15101.0
1679343290157769,195155.0,231771.0,15114.0
1679343290167769,195202.0,231756.0,15136.0
1679343290177769,195240.0,231773.0,15139.0
1679343290186769,195271.0,231757.0,15154.0
1679343290197769,195332.0,231794.0,15149.0
1679343290207769,195375.0,231825.0,15155.0
1679343290217769,195408.0,231829.0,15170.0
1679343290226769,195444.0,231837.0,15164.0
1679343290236769,195458.0,231860.0,15160.0
1679343290247769,195527.0,231889.0,15155.0
1679343290256769,195557.0,231893.0,15187.0
1679343290266769,195582.0,231888.0,15172.0
1679343290276769,195626.0,231919.0,15163.0
1679343290287769,195653.0,231925.0,15208.0
1679343290297769,195664.0,231929.0,15208.0
1679343290306769,195699.0,231957.0,15205.0
1679343290316769,195711.0,231954.0,15211.0
1679343290327769,195724.0,231959.0,15216.0
1679343290337769,195722.0,231965.0,15242.0
1679343290348769,195773.0,231969.0,15228.0
1679343290356768,195791.0,231970.0,15221.0
1679343290367768,195786.0,231964.0,15219.0
1679343290377768,195814.0,231981.0,15245.0
1679343290386768,195823.0,231992.0,15242.0
1679343290396769,195840.0,232017.0,15241.0
1679343290407769,195898.0,231995.0,15240.0
1679343290417769,195901.0,231942.0,15242.0
1679343290426769,195944.0,231959.0,15243.0
1679343290436769,195977.0,231940.0,15254.0
1679343290449769,195982.0,231945.0,15247.0
1679343290457769,195985.0,231955.0,15238.0
1679343290466769,195981.0,231904.0,15254.0
1679343290476769,195977.0,231909.0,15242.0
1679343290486769,195968.0,231955.0,15261.0
1679343290497769,195938.0,231956.0,15227.0
1679343290506769,195916.0,231951.0,15219.0
1679343290516769,195926.0,231951.0,15183.0
1679343290526769,195915.0,231942.0,15206.0
1679343290537768,195889.0,231923.0,15211.0
1679343290546769,195868.0,231916.0,15210.0
1679343290556769,195843.0,231933.0,15208.0
1679343290567768,195790.0,231870.0,15223.0
1679343290577769,195765.0,231855.0,15215.0
1679343290587769,195729.0,231853.0,15211.0
1679343290596769,195691.0,231898.0,15204.0
1679343290606769,195658.0,231896.0,15196.0
1679343290617769,195637.0,231888.0,15184.0
1679343290626769,195589.0,231876.0,15167.0
1679343290636769,195561.0,231872.0,15162.0
1679343290646769,195502.0,231905.0,15171.0
1679343290657769,195476.0,231898.0,15168.0
1679343290666769,195435.0,231868.0,15138.0
1679343290676769,195391.0,231895.0,15165.0
1679343290686769,195354.0,231878.0,15162.0
1679343290697769,195372.0,231904.0,15157.0
1679343290706769,195340.0,231867.0,15152.0
1679343290716769,195346.0,231877.0,15162.0
1679343290726769,195344.0,231879.0,15137.0
1679343290737769,195356.0,231898.0,15143.0
1679343290746769,195338.0,231882.0,15151.0
1679343290756769,195364.0,231902.0,15152.0
1679343290766769,195392.0,231900.0,15152.0
1679343290777769,195398.0,231899.0,15152.0
1679343290786769,195410.0,231834.0,15169.0
1679343290797769,195426.0,231883.0,15168.0
1679343290806769,195448.0,231887.0,15163.0
1679343290816769,195455.0,231884.0,15173.0
1679343290827769,195457.0,231906.0,15163.0
1679343290836769,195434.0,231889.0,15165.0
1679343290846769,195412.0,231886.0,15175.0
1679343290856769,195399.0,231885.0,15168.0
1679343290866769,195466.0,231853.0,15127.0
1679343290876769,195480.0,231847.0,15153.0
1679343290886769,195455.0,231893.0,15177.0
1679343290896769,195513.0,231878.0,15174.0
1679343290906769,195542.0,231886.0,15154.0
1679343290916769,195564.0,231875.0,15203.0
1679343290926769,195632.0,231888.0,15192.0
1679343290936769,195682.0,231883.0,15189.0
1679343290947769,195675.0,231897.0,15220.0
1679343290956769,195773.0,231918.0,15231.0
1679343290966769,195779.0,231876.0,15240.0
1679343290976769,195848.0,231906.0,15235.0
1679343290986769,195901.0,231904.0,15251.0
1679343290996769,195904.0,231908.0,15251.0
1679343291006769,195959.0,231888.0,15263.0
1679343291016769,196005.0,231892.0,15272.0
1679343291027768,196041.0,231852.0,15274.0
1679343291036769,196075.0,231912.0,15284.0
1679343291047768,196083.0,231871.0,15283.0
1679343291056769,196116.0,231863.0,15293.0
1679343291066769,196143.0,231870.0,15287.0
1679343291076769,196129.0,231886.0,15298.0
1679343291087768,196131.0,231858.0,15301.0
1679343291096768,196169.0,231894.0,15295.0
1679343291106768,196152.0,231872.0,15299.0
1679343291116769,196143.0,231852.0,15291.0
1679343291127769,196128.0,231783.0,15289.0
1679343291136769,196132.0,231818.0,15300.0
1679343291146769,196124.0,231792.0,15297.0
1679343291156769,196145.0,231811.0,15289.0
1679343291167769,196137.0,231817.0,15297.0
1679343291176769,196120.0,231733.0,15284.0
1679343291186769,196059.0,231784.0,15298.0
1679343291196769,196100.0,231813.0,15268.0
1679343291206769,196096.0,231801.0,15257.0
1679343291216769,196139.0,231804.0,15256.0
1679343291225769,196138.0,231800.0,15283.0
1679343291236769,196121.0,231804.0,15281.0
1679343291246769,196120.0,231783.0,15288.0
1679343291256769,196117.0,231788.0,15287.0
1679343291266769,196114.0,231810.0,15288.0
1679343291276769,196110.0,231720.0,15282.0
1679343291287768,196101.0,231752.0,15294.0
1679343291297769,196100.0,231799.0,15304.0
1679343291305769,196113.0,231734.0,15303.0
1679343291316769,196117.0,231772.0,15293.0
1679343291326769,196109.0,231764.0,15305.0
1679343291337768,196112.0,231761.0,15264.0
1679343291345768,196096.0,231779.0,15281.0
1679343291356768,196115.0,231758.0,15266.0
1679343291366768,196045.0,231778.0,15291.0
1679343291376768,196106.0,231755.0,15290.0
1679343291385768,196107.0,231753.0,15295.0
1679343291396768,196120.0,231745.0,15274.0
1679343291406768,196112.0,231746.0,15285.0
1679343291416768,196099.0,231738.0,15295.0
1679343291425768,196104.0,231760.0,15268.0
1679343291436768,196112.0,231743.0,15265.0
1679343291446768,196092.0,231723.0,15291.0
1679343291457768,196107.0,231746.0,15247.0
1679343291466768,196086.0,231724.0,15289.0
1679343291476769,196068.0,231707.0,15297.0
1679343291487769,196096.0,231694.0,15303.0
1679343291496769,196117.0,231724.0,15294.0
1679343291505769,196131.0,231730.0,15310.0
1679343291516769,196080.0,231714.0,15317.0
1679343291526769,196087.0,231711.0,15327.0
1679343291537768,196132.0,231711.0,15327.0
1679343291546769,196184.0,231643.0,15320.0
1679343291558769,196211.0,231691.0,15316.0
1679343291566769,196243.0,231692.0,15337.0
1679343291576769,196218.0,231680.0,15333.0
1679343291586768,196194.0,231673.0,15330.0
1679343291596768,196229.0,231669.0,15302.0
1679343291606768,196183.0,231645.0,15333.0
1679343291616768,196224.0,231636.0,15293.0
1679343291626768,196202.0,231639.0,15287.0
1679343291636768,196182.0,231621.0,15321.0
1679343291645769,196193.0,231619.0,15314.0
1679343291656769,196241.0,231614.0,15299.0
1679343291666769,196207.0,231597.0,15337.0
1679343291676769,196229.0,231616.0,15334.0
1679343291685769,196251.0,231618.0,15322.0
1679343291696769,196263.0,231624.0,15345.0
1679343291706769,196278.0,231646.0,15345.0
1679343291716769,196312.0,231611.0,15315.0
1679343291726769,196320.0,231624.0,15348.0
1679343291736769,196342.0,231645.0,15351.0
1679343291746769,196349.0,231641.0,15348.0
1679343291756769,196354.0,231655.0,15354.0
1679343291765769,196360.0,231649.0,15351.0
1679343291776769,196390.0,231629.0,15303.0
1679343291786769,196339.0,231652.0,15364.0
1679343291797768,196334.0,231654.0,15359.0
1679343291805768,196351.0,231654.0,15361.0
1679343291816768,196350.0,231665.0,15362.0
1679343291826768,196324.0,231677.0,15361.0
1679343291837769,196338.0,231665.0,15363.0
1679343291845769,196347.0,231668.0,15359.0
1679343291856768,196342.0,231646.0,15343.0
1679343291866768,196323.0,231636.0,15346.0
1679343291877768,196310.0,231655.0,15347.0
1679343291885768,196302.0,231648.0,15333.0
1679343291896768,196278.0,231651.0,15332.0
1679343291906768,196252.0,231577.0,15333.0
1679343291917768,196243.0,231611.0,15323.0
1679343291925768,196221.0,231624.0,15323.0
1679343291936768,196211.0,231690.0,15331.0
1679343291946768,196207.0,231638.0,15316.0
1679343291956768,196198.0,231655.0,15317.0
1679343291965768,196188.0,231637.0,15312.0
1679343291976768,196190.0,231633.0,15294.0
1679343291986768,196167.0,231638.0,15296.0
1679343291996768,196156.0,231628.0,15282.0
1679343292005768,196160.0,231636.0,15291.0
1679343292016769,196171.0,231619.0,15294.0
1679343292026769,196105.0,231623.0,15310.0
1679343292036769,196120.0,231647.0,15301.0
1679343292046769,196126.0,231649.0,15303.0
1679343292056769,196118.0,231631.0,15302.0
1679343292065769,196097.0,231580.0,15301.0
1679343292076769,196069.0,231664.0,15312.0
1679343292086769,196120.0,231642.0,15302.0
1679343292096769,196114.0,231618.0,15308.0
1679343292106769,196126.0,231580.0,15308.0
1679343292116769,196122.0,231597.0,15303.0
1679343292126769,196109.0,231627.0,15300.0
1679343292136769,196110.0,231672.0,15309.0
1679343292145769,196114.0,231626.0,15313.0
1679343292156769,196114.0,231676.0,15311.0
1679343292166769,196120.0,231683.0,15307.0
1679343292176769,196083.0,231661.0,15296.0
1679343292185769,196077.0,231684.0,15310.0
1679343292196769,196117.0,231670.0,15294.0
1679343292206769,196093.0,231690.0,15313.0
1679343292216769,196121.0,231684.0,15301.0
1679343292225769,196143.0,231650.0,15308.0
1679343292236769,196130.0,231637.0,15303.0
1679343292246769,196134.0,231656.0,15310.0
1679343292256769,196136.0,231697.0,15305.0
1679343292265769,196116.0,231627.0,15294.0
1679343292276769,196129.0,231681.0,15290.0
1679343292286769,196071.0,231716.0,15297.0
1679343292296769,196053.0,231709.0,15294.0
1679343292305769,196042.0,231709.0,15297.0
1679343292316769,196019.0,231702.0,15286.0
1679343292326769,195995.0,231708.0,15265.0
1679343292336768,195920.0,231685.0,15252.0
1679343292345769,195865.0,231673.0,15259.0
1679343292356768,195804.0,231665.0,15248.0
1679343292365769,195786.0,231634.0,15249.0
1679343292376769,195795.0,231624.0,15231.0
1679343292385769,195687.0,231636.0,15240.0
1679343292396769,195730.0,231676.0,15229.0
1679343292406769,195709.0,231654.0,15221.0
1679343292416769,195700.0,231660.0,15229.0
1679343292425769,195689.0,231642.0,15222.0
1679343292436769,195690.0,231687.0,15223.0
1679343292446769,195693.0,231661.0,15226.0
1679343292456769,195722.0,231720.0,15230.0
1679343292465769,195725.0,231692.0,15226.0
1679343292476769,195723.0,231676.0,15229.0
1679343292485769,195721.0,231675.0,15229.0
1679343292496769,195729.0,231732.0,15217.0
1679343292505769,195724.0,231687.0,15223.0
1679343292516769,195726.0,231699.0,15238.0
1679343292525769,195698.0,231694.0,15229.0
1679343292536769,195746.0,231712.0,15224.0
1679343292546769,195750.0,231745.0,15227.0
1679343292556769,195742.0,231719.0,15228.0
1679343292566769,195763.0,231695.0,15231.0
1679343292576769,195748.0,231667.0,15211.0
1679343292586769,195753.0,231711.0,15216.0
1679343292596769,195731.0,231717.0,15216.0
1679343292605769,195716.0,231702.0,15220.0
1679343292616769,195708.0,231706.0,15213.0
1679343292626769,195693.0,231682.0,15219.0
1679343292636769,195681.0,231664.0,15215.0
1679343292645769,195681.0,231641.0,15216.0
1679343292656769,195673.0,231678.0,15213.0
1679343292667769,195650.0,231669.0,15208.0
1679343292675768,195638.0,231673.0,15195.0
1679343292685768,195639.0,231669.0,15207.0
1679343292696768,195650.0,231681.0,15210.0
1679343292706768,195647.0,231715.0,15205.0
1679343292715768,195650.0,231606.0,15207.0
1679343292725768,195635.0,231609.0,15212.0
1679343292736769,195648.0,231671.0,15221.0
1679343292746769,195667.0,231607.0,15224.0
1679343292756769,195678.0,231655.0,15215.0
1679343292767769,195706.0,231668.0,15218.0
1679343292776769,195712.0,231671.0,15225.0
1679343292786769,195704.0,231616.0,15222.0
1679343292796769,195710.0,231630.0,15218.0
1679343292805769,195716.0,231674.0,15219.0
1679343292816769,195740.0,231652.0,15228.0
1679343292826769,195742.0,231637.0,15232.0
1679343292836769,195781.0,231653.0,15222.0
1679343292845769,195788.0,231659.0,15228.0
1679343292855769,195786.0,231673.0,15240.0
1679343292868769,195811.0,231650.0,15199.0
1679343292876769,195822.0,231652.0,15236.0
1679343292885769,195820.0,231619.0,15241.0
1679343292896769,195825.0,231616.0,15250.0
1679343292905769,195854.0,231618.0,15233.0
1679343292916769,195848.0,231651.0,15247.0
1679343292925769,195864.0,231656.0,15246.0
1679343292935769,195881.0,231647.0,15239.0
1679343292946769,195893.0,231658.0,15232.0
1679343292955769,195840.0,231666.0,15254.0
1679343292965769,195880.0,231671.0,15240.0
1679343292975769,195900.0,231685.0,15223.0
1679343292986769,195870.0,231670.0,15248.0
1679343292995769,195907.0,231685.0,15244.0
1679343293005769,195917.0,231681.0,15229.0
1679343293015769,195909.0,231673.0,15211.0
1679343293026769,195903.0,231663.0,15220.0
1679343293035769,195891.0,231655.0,15214.0
1679343293046769,195839.0,231668.0,15225.0
1679343293055769,195830.0,231629.0,15212.0
1679343293066769,195821.0,231615.0,15204.0
1679343293076769,195781.0,231602.0,15218.0
1679343293086768,195805.0,231598.0,15243.0
1679343293096769,195785.0,231591.0,15245.0
1679343293105769,195801.0,231568.0,15234.0
1679343293115769,195822.0,231594.0,15234.0
1679343293126769,195844.0,231597.0,15236.0
1679343293136769,195842.0,231644.0,15244.0
1679343293145769,195865.0,231617.0,15250.0
1679343293155769,195872.0,231622.0,15259.0
1679343293166769,195893.0,231619.0,15260.0
1679343293175769,195914.0,231635.0,15245.0
1679343293185769,195958.0,231633.0,15263.0
1679343293196769,195965.0,231653.0,15266.0
1679343293206769,195971.0,231665.0,15269.0
1679343293215769,196011.0,231670.0,15275.0
1679343293225769,196056.0,231667.0,15247.0
1679343293236769,196059.0,231690.0,15282.0
1679343293246769,196068.0,231679.0,15274.0
1679343293255769,196076.0,231695.0,15281.0
1679343293265769,196083.0,231682.0,15291.0
1679343293276769,196091.0,231702.0,15291.0
1679343293286769,196089.0,231677.0,15288.0
1679343293295769,196098.0,231693.0,15268.0
1679343293305769,196085.0,231682.0,15270.0
1679343293316769,196091.0,231707.0,15281.0
1679343293326769,196069.0,231685.0,15284.0
1679343293336769,196061.0,231677.0,15278.0
1679343293345769,196019.0,231703.0,15291.0
1679343293355769,195990.0,231683.0,15290.0
1679343293366769,196014.0,231693.0,15283.0
1679343293375769,196008.0,231693.0,15283.0
1679343293385769,196050.0,231671.0,15240.0
1679343293395769,196053.0,231663.0,15258.0
1679343293405769,196062.0,231676.0,15261.0
1679343293416769,196049.0,231693.0,15279.0
1679343293425769,196037.0,231682.0,15284.0
1679343293436769,196074.0,231691.0,15280.0
1679343293445769,196047.0,231671.0,15285.0
1679343293456769,196064.0,231665.0,15285.0
1679343293465769,196084.0,231696.0,15288.0
1679343293476769,196084.0,231709.0,15257.0
1679343293485769,196083.0,231693.0,15284.0
1679343293496769,196087.0,231687.0,15288.0
1679343293505769,196100.0,231655.0,15283.0
1679343293515769,196103.0,231657.0,15287.0
1679343293525769,196111.0,231703.0,15253.0
1679343293535769,196114.0,231695.0,15272.0
1679343293546769,196139.0,231690.0,15271.0
1679343293555769,196097.0,231695.0,15280.0
1679343293565769,196127.0,231708.0,15269.0
1679343293575769,196155.0,231712.0,15267.0
1679343293586768,196142.0,231715.0,15275.0
1679343293595769,196163.0,231686.0,15299.0
1679343293605769,196176.0,231709.0,15306.0
1679343293615769,196180.0,231689.0,15295.0
1679343293626768,196201.0,231682.0,15292.0
1679343293635769,196215.0,231697.0,15308.0
1679343293645769,196233.0,231696.0,15289.0
1679343293655769,196211.0,231685.0,15306.0
1679343293666769,196193.0,231697.0,15304.0
1679343293674769,196231.0,231717.0,15311.0
1679343293685768,196259.0,231706.0,15266.0
1679343293695768,196283.0,231678.0,15305.0
1679343293706768,196275.0,231701.0,15332.0
1679343293715768,196279.0,231707.0,15320.0
1679343293725768,196280.0,231712.0,15315.0
1679343293735768,196272.0,231695.0,15324.0
1679343293746768,196246.0,231680.0,15323.0
1679343293755768,196214.0,231677.0,15315.0
1679343293765768,196207.0,231618.0,15309.0
1679343293775768,196185.0,231636.0,15317.0
1679343293786768,196194.0,231646.0,15319.0
1679343293796768,196178.0,231596.0,15308.0
1679343293805768,196190.0,231584.0,15311.0
1679343293815769,196192.0,231604.0,15299.0
1679343293825769,196186.0,231649.0,15301.0
1679343293836769,196227.0,231674.0,15308.0
1679343293845769,196231.0,231678.0,15326.0
1679343293855769,196279.0,231689.0,15334.0
1679343293865769,196298.0,231687.0,15342.0
1679343293876769,196328.0,231696.0,15342.0
1679343293884769,196433.0,231713.0,15340.0
1679343293895769,196422.0,231708.0,15324.0
1679343293905768,196437.0,231697.0,15330.0
1679343293916768,196444.0,231705.0,15343.0
1679343293924768,196469.0,231727.0,15329.0
1679343293935768,196518.0,231746.0,15328.0
1679343293945768,196504.0,231715.0,15365.0
1679343293956768,196536.0,231743.0,15338.0
1679343293964768,196544.0,231734.0,15337.0
1679343293976768,196552.0,231726.0,15380.0
1679343293986768,196527.0,231726.0,15363.0
1679343293996769,196589.0,231726.0,15366.0
1679343294005769,196585.0,231729.0,15379.0
1679343294015769,196578.0,231732.0,15342.0
1679343294025769,196591.0,231734.0,15350.0
1679343294035769,196593.0,231718.0,15343.0
1679343294045769,196592.0,231715.0,15362.0
1679343294055769,196585.0,231699.0,15377.0
1679343294065769,196585.0,231675.0,15383.0
1679343294076769,196590.0,231662.0,15370.0
1679343294085769,196595.0,231688.0,15369.0
1679343294095769,196616.0,231721.0,15386.0
1679343294105769,196624.0,231718.0,15389.0
1679343294115769,196648.0,231716.0,15382.0
1679343294125769,196662.0,231716.0,15390.0
1679343294135769,196670.0,231707.0,15393.0
1679343294145769,196665.0,231705.0,15409.0
1679343294155769,196703.0,231718.0,15423.0
1679343294165769,196717.0,231687.0,15421.0
1679343294177769,196737.0,231686.0,15415.0
1679343294185769,196765.0,231693.0,15424.0
1679343294195769,196798.0,231718.0,15429.0
1679343294205769,196790.0,231687.0,15430.0
1679343294215769,196834.0,231690.0,15427.0
1679343294225769,196854.0,231695.0,15437.0
1679343294236769,196850.0,231697.0,15439.0
1679343294245769,196858.0,231673.0,15427.0
1679343294255769,196857.0,231677.0,15436.0
1679343294265769,196841.0,231624.0,15433.0
1679343294277769,196871.0,231660.0,15442.0
1679343294285769,196874.0,231649.0,15446.0
1679343294296769,196861.0,231668.0,15427.0
1679343294305769,196860.0,231602.0,15440.0
1679343294315769,196884.0,231664.0,15441.0
1679343294325769,196893.0,231647.0,15442.0
1679343294336768,196898.0,231621.0,15438.0
1679343294345769,196902.0,231579.0,15440.0
1679343294355769,196922.0,231652.0,15444.0
1679343294365769,196944.0,231653.0,15458.0
1679343294378769,196964.0,231622.0,15464.0
1679343294384769,196985.0,231573.0,15465.0
1679343294395769,197008.0,231640.0,15472.0
1679343294405769,197030.0,231634.0,15473.0
1679343294416769,197058.0,231656.0,15470.0
1679343294425769,197088.0,231632.0,15480.0
1679343294435769,197072.0,231638.0,15477.0
1679343294445769,197086.0,231606.0,15479.0
1679343294455769,197094.0,231601.0,15472.0
1679343294465769,197085.0,231584.0,15457.0
1679343294474769,197079.0,231577.0,15474.0
1679343294485769,197090.0,231567.0,15454.0
1679343294496769,197082.0,231546.0,15492.0
1679343294505769,197107.0,231517.0,15489.0
1679343294515769,197120.0,231512.0,15486.0
1679343294525769,197144.0,231507.0,15481.0
1679343294536769,197168.0,231573.0,15491.0
1679343294545769,197195.0,231528.0,15507.0
1679343294555769,197239.0,231580.0,15514.0
1679343294565769,197271.0,231575.0,15505.0
1679343294575769,197262.0,231569.0,15521.0
1679343294585769,197311.0,231575.0,15509.0
1679343294594769,197365.0,231591.0,15529.0
1679343294605769,197387.0,231572.0,15538.0
1679343294615769,197426.0,231596.0,15535.0
1679343294626769,197458.0,231569.0,15565.0
1679343294634769,197496.0,231535.0,15550.0
1679343294645769,197518.0,231568.0,15579.0
1679343294655768,197561.0,231602.0,15572.0
1679343294666768,197583.0,231536.0,15568.0
1679343294674768,197571.0,231554.0,15579.0
1679343294685768,197587.0,231582.0,15576.0
1679343294695768,197515.0,231573.0,15573.0
1679343294705768,197550.0,231570.0,15571.0
1679343294714769,197554.0,231555.0,15551.0
1679343294725769,197567.0,231558.0,15544.0
1679343294735769,197544.0,231581.0,15566.0
1679343294745769,197490.0,231589.0,15569.0
1679343294755769,197497.0,231592.0,15558.0
1679343294765769,197454.0,231590.0,15561.0
1679343294775769,197453.0,231565.0,15553.0
1679343294785769,197436.0,231538.0,15549.0
1679343294795769,197413.0,231586.0,15550.0
1679343294805769,197386.0,231596.0,15530.0
1679343294815769,197353.0,231586.0,15526.0
1679343294825769,197303.0,231606.0,15522.0
1679343294835769,197241.0,231574.0,15513.0
1679343294845769,197203.0,231580.0,15515.0
1679343294854769,197166.0,231561.0,15502.0
1679343294865769,197140.0,231560.0,15505.0
1679343294875769,197090.0,231564.0,15496.0
1679343294885769,197061.0,231568.0,15478.0
1679343294894769,197095.0,231557.0,15479.0
1679343294905769,197051.0,231549.0,15456.0
1679343294915769,197010.0,231573.0,15442.0
1679343294925769,196989.0,231551.0,15426.0
1679343294934769,196938.0,231550.0,15460.0
1679343294945769,196910.0,231541.0,15474.0
1679343294955769,196888.0,231537.0,15466.0
1679343294965769,196933.0,231558.0,15454.0
1679343294974769,196907.0,231565.0,15465.0
1679343294985769,196917.0,231545.0,15470.0
1679343294995769,196992.0,231538.0,15464.0
1679343295005769,197026.0,231535.0,15461.0
1679343295014769,197049.0,231576.0,15468.0
1679343295025769,197078.0,231570.0,15451.0
1679343295035769,197110.0,231564.0,15466.0
1679343295045769,197136.0,231558.0,15473.0
1679343295054769,197140.0,231581.0,15468.0
1679343295065769,197178.0,231564.0,15476.0
1679343295075769,197199.0,231543.0,15493.0
1679343295085769,197226.0,231555.0,15495.0
1679343295094769,197256.0,231550.0,15505.0
1679343295105769,197310.0,231569.0,15517.0
1679343295115769,197339.0,231574.0,15504.0
1679343295125769,197384.0,231564.0,15503.0
1679343295134769,197421.0,231565.0,15522.0
1679343295145769,197367.0,231585.0,15544.0
1679343295155769,197394.0,231564.0,15541.0
1679343295165769,197423.0,231592.0,15541.0
1679343295174769,197442.0,231570.0,15546.0
1679343295185769,197453.0,231584.0,15539.0
1679343295194769,197501.0,231598.0,15536.0
1679343295205769,197479.0,231577.0,15512.0
1679343295214769,197487.0,231569.0,15517.0
1679343295225769,197502.0,231564.0,15526.0
1679343295234769,197465.0,231586.0,15551.0
1679343295245769,197495.0,231598.0,15540.0
1679343295255769,197518.0,231610.0,15526.0
1679343295265769,197500.0,231608.0,15510.0
1679343295274769,197474.0,231624.0,15547.0
1679343295285769,197456.0,231652.0,15549.0
1679343295295769,197472.0,231671.0,15529.0
1679343295305769,197444.0,231656.0,15530.0
1679343295315769,197419.0,231659.0,15527.0
1679343295324769,197402.0,231657.0,15491.0
1679343295335769,197414.0,231647.0,15494.0
1679343295344769,197384.0,231653.0,15488.0
1679343295355769,197356.0,231668.0,15486.0
1679343295364769,197335.0,231636.0,15491.0
1679343295375769,197317.0,231671.0,15495.0
1679343295386768,197256.0,231669.0,15472.0
1679343295394768,197263.0,231665.0,15496.0
1679343295405768,197230.0,231646.0,15493.0
1679343295415768,197206.0,231637.0,15491.0
1679343295425768,197185.0,231621.0,15493.0
1679343295434769,197176.0,231596.0,15486.0
1679343295444769,197160.0,231608.0,15483.0
1679343295454769,197151.0,231657.0,15476.0
1679343295463769,197142.0,231662.0,15479.0
1679343295474769,197152.0,231644.0,15442.0
1679343295485769,197108.0,231644.0,15435.0
1679343295494769,197128.0,231638.0,15461.0
1679343295504769,197103.0,231660.0,15458.0
1679343295514769,197096.0,231659.0,15459.0
1679343295523769,197059.0,231650.0,15467.0
1679343295534769,197028.0,231664.0,15473.0
1679343295544769,197043.0,231621.0,15465.0
1679343295553769,197046.0,231626.0,15465.0
1679343295563769,197032.0,231614.0,15462.0
1679343295574769,197057.0,231627.0,15462.0
1679343295584769,197006.0,231616.0,15451.0
1679343295593769,197039.0,231614.0,15427.0
1679343295604769,197041.0,231599.0,15459.0
1679343295615769,197052.0,231601.0,15466.0
1679343295625769,197041.0,231580.0,15465.0
1679343295634769,197073.0,231580.0,15452.0
1679343295644769,197068.0,231606.0,15450.0
1679343295655769,197079.0,231589.0,15461.0
1679343295665769,197098.0,231581.0,15474.0
1679343295674769,197099.0,231570.0,15471.0
1679343295684769,197070.0,231588.0,15475.0
1679343295695769,197085.0,231600.0,15479.0
1679343295705769,197153.0,231572.0,15459.0
1679343295714769,197138.0,231601.0,15484.0
1679343295724769,197147.0,231602.0,15486.0
1679343295735769,197196.0,231578.0,15490.0
1679343295745769,197213.0,231603.0,15505.0
1679343295755769,197229.0,231602.0,15505.0
1679343295764769,197221.0,231596.0,15509.0
1679343295775769,197302.0,231626.0,15508.0
1679343295784769,197298.0,231626.0,15517.0
1679343295795769,197303.0,231650.0,15521.0
1679343295804769,197361.0,231612.0,15509.0
1679343295815769,197327.0,231608.0,15514.0
1679343295825769,197316.0,231600.0,15519.0
1679343295835769,197332.0,231625.0,15510.0
1679343295844769,197359.0,231615.0,15520.0
1679343295855769,197349.0,231656.0,15511.0
1679343295865769,197308.0,231605.0,15489.0
1679343295875769,197273.0,231595.0,15498.0
1679343295884769,197233.0,231613.0,15483.0
1679343295895769,197196.0,231626.0,15477.0
1679343295904769,197121.0,231626.0,15488.0
1679343295915768,197111.0,231613.0,15491.0
1679343295924769,197134.0,231650.0,15477.0
1679343295935768,197120.0,231666.0,15468.0
1679343295944769,197100.0,231662.0,15461.0
1679343295955768,197091.0,231677.0,15474.0
1679343295964769,197096.0,231679.0,15457.0
1679343295975769,197084.0,231687.0,15454.0
1679343295984769,197085.0,231668.0,15470.0
1679343295995769,197073.0,231656.0,15461.0
1679343296005769,197022.0,231709.0,15459.0
1679343296014769,197062.0,231715.0,15466.0
1679343296024769,197062.0,231702.0,15468.0
1679343296034769,197054.0,231729.0,15448.0
1679343296045769,197073.0,231703.0,15445.0
1679343296055769,197077.0,231712.0,15452.0
1679343296064769,197068.0,231723.0,15448.0
1679343296074769,197053.0,231728.0,15426.0
1679343296085769,197036.0,231698.0,15425.0
1679343296095769,197044.0,231714.0,15445.0
1679343296104769,197032.0,231687.0,15442.0
1679343296115769,196986.0,231702.0,15450.0
1679343296125769,196985.0,231673.0,15449.0
1679343296134769,196970.0,231660.0,15445.0
1679343296144769,196957.0,231627.0,15441.0
1679343296155769,196898.0,231639.0,15422.0
1679343296165769,196891.0,231627.0,15428.0
1679343296174769,196861.0,231645.0,15437.0
1679343296184769,196853.0,231625.0,15423.0
1679343296195769,196866.0,231611.0,15419.0
1679343296205769,196831.0,231560.0,15420.0
1679343296214769,196820.0,231572.0,15412.0
1679343296224769,196779.0,231582.0,15399.0
1679343296234769,196816.0,231578.0,15395.0
1679343296245769,196826.0,231572.0,15384.0
1679343296255769,196792.0,231546.0,15426.0
1679343296264769,196808.0,231594.0,15401.0
1679343296274769,196842.0,231563.0,15401.0
1679343296285769,196830.0,231548.0,15445.0
1679343296295769,196852.0,231523.0,15438.0
1679343296304769,196882.0,231568.0,15442.0
1679343296315769,196931.0,231536.0,15453.0
1679343296324769,196951.0,231532.0,15457.0
1679343296334769,196976.0,231551.0,15459.0
1679343296344769,197022.0,231524.0,15447.0
1679343296354769,196980.0,231520.0,15472.0
1679343296365769,197020.0,231525.0,15447.0
1679343296374769,197032.0,231549.0,15463.0
1679343296384769,197044.0,231555.0,15487.0
1679343296395769,197055.0,231541.0,15489.0
1679343296405768,197107.0,231545.0,15481.0
1679343296414769,197086.0,231537.0,15490.0
1679343296424769,197098.0,231532.0,15497.0
1679343296434769,197110.0,231527.0,15499.0
1679343296445768,197120.0,231525.0,15493.0
1679343296454769,197146.0,231511.0,15498.0
1679343296464769,197141.0,231527.0,15509.0
1679343296474769,197150.0,231507.0,15507.0
1679343296485768,197173.0,231508.0,15512.0
1679343296496768,197165.0,231499.0,15507.0
1679343296505768,197171.0,231504.0,15541.0
1679343296514769,197233.0,231490.0,15493.0
1679343296524769,197229.0,231497.0,15502.0
1679343296534769,197219.0,231489.0,15515.0
1679343296545769,197203.0,231489.0,15498.0
1679343296554769,197212.0,231484.0,15518.0
1679343296564769,197250.0,231506.0,15520.0
1679343296574769,197233.0,231483.0,15509.0
1679343296585769,197227.0,231414.0,15507.0
1679343296594769,197202.0,231425.0,15506.0
1679343296604769,197162.0,231448.0,15516.0
1679343296614769,197151.0,231448.0,15493.0
1679343296625769,197096.0,231437.0,15490.0
1679343296634769,197050.0,231414.0,15496.0
1679343296644769,197047.0,231403.0,15495.0
1679343296654769,197046.0,231398.0,15494.0
1679343296665768,197073.0,231384.0,15467.0
1679343296673768,197100.0,231385.0,15460.0
1679343296684768,197132.0,231372.0,15467.0
1679343296694769,197148.0,231367.0,15497.0
1679343296705769,197108.0,231355.0,15491.0
1679343296713769,197149.0,231355.0,15499.0
1679343296724769,197206.0,231357.0,15483.0
1679343296734768,197226.0,231370.0,15494.0
1679343296745768,197248.0,231354.0,15480.0
1679343296754768,197280.0,231341.0,15513.0
1679343296764768,197301.0,231363.0,15527.0
1679343296774768,197333.0,231367.0,15529.0
1679343296785768,197358.0,231371.0,15531.0
1679343296794768,197390.0,231345.0,15547.0
1679343296804768,197406.0,231365.0,15544.0
1679343296814768,197427.0,231318.0,15560.0
1679343296824768,197436.0,231307.0,15545.0
1679343296834768,197488.0,231303.0,15534.0
1679343296844768,197534.0,231293.0,15555.0
1679343296854768,197547.0,231256.0,15581.0
1679343296864768,197580.0,231281.0,15607.0
1679343296874769,197611.0,231228.0,15607.0
1679343296884769,197626.0,231219.0,15618.0
1679343296894769,197703.0,231224.0,15613.0
1679343296904769,197727.0,231207.0,15609.0
1679343296914769,197730.0,231176.0,15623.0
1679343296924769,197735.0,231185.0,15615.0
1679343296934769,197782.0,231169.0,15599.0
1679343296944769,197789.0,231142.0,15639.0
1679343296954769,197800.0,231159.0,15627.0
1679343296964769,197808.0,231186.0,15632.0
1679343296974769,197809.0,231108.0,15625.0
1679343296984768,197822.0,231144.0,15623.0
1679343296994768,197799.0,231151.0,15632.0
1679343297005768,197814.0,231114.0,15627.0
1679343297014768,197808.0,231165.0,15623.0
1679343297024768,197788.0,231174.0,15640.0
1679343297034768,197772.0,231197.0,15629.0
1679343297045768,197773.0,231164.0,15625.0
1679343297054769,197758.0,231161.0,15628.0
1679343297064769,197755.0,231172.0,15617.0
1679343297074769,197789.0,231184.0,15612.0
1679343297085769,197770.0,231182.0,15620.0
1679343297094769,197721.0,231167.0,15619.0
1679343297104769,197775.0,231174.0,15621.0
1679343297114769,197743.0,231181.0,15624.0
1679343297124769,197788.0,231163.0,15624.0
1679343297134769,197776.0,231164.0,15608.0
1679343297144769,197770.0,231168.0,15602.0
1679343297155768,197771.0,231137.0,15621.0
1679343297164769,197782.0,231136.0,15619.0
1679343297174769,197775.0,231181.0,15613.0
1679343297184769,197793.0,231111.0,15629.0
1679343297194769,197796.0,231094.0,15635.0
1679343297204769,197800.0,231100.0,15627.0
1679343297214769,197814.0,231181.0,15625.0
1679343297224769,197769.0,231174.0,15634.0
1679343297234769,197764.0,231154.0,15626.0
1679343297244769,197751.0,231165.0,15630.0
1679343297255769,197824.0,231174.0,15629.0
1679343297264769,197835.0,231153.0,15627.0
1679343297274769,197844.0,231169.0,15624.0
1679343297284769,197864.0,231172.0,15632.0
1679343297295769,197856.0,231204.0,15634.0
1679343297304769,197875.0,231090.0,15649.0
1679343297314769,197870.0,231165.0,15631.0
1679343297324769,197852.0,231161.0,15637.0
1679343297335769,197851.0,231157.0,15645.0
1679343297343768,197848.0,231158.0,15634.0
1679343297354768,197839.0,231209.0,15631.0
1679343297364768,197808.0,231167.0,15621.0
1679343297375768,197758.0,231172.0,15617.0
1679343297383768,197705.0,231155.0,15607.0
1679343297394768,197667.0,231152.0,15599.0
1679343297404768,197612.0,231161.0,15606.0
1679343297415769,197618.0,231097.0,15561.0
1679343297423769,197591.0,231140.0,15567.0
1679343297434769,197516.0,231175.0,15592.0
1679343297444769,197515.0,231137.0,15591.0
1679343297455768,197519.0,231148.0,15571.0
1679343297463768,197508.0,231130.0,15578.0
1679343297474768,197522.0,231169.0,15577.0
1679343297484768,197522.0,231157.0,15568.0
1679343297495768,197505.0,231194.0,15566.0
1679343297504768,197514.0,231166.0,15584.0
1679343297514768,197530.0,231214.0,15548.0
1679343297524768,197537.0,231123.0,15567.0
1679343297535768,197532.0,231162.0,15573.0
1679343297544768,197530.0,231156.0,15570.0
1679343297554768,197532.0,231215.0,15592.0
1679343297564768,197560.0,231223.0,15583.0
1679343297574768,197562.0,231244.0,15589.0
1679343297584768,197558.0,231229.0,15587.0
1679343297594769,197561.0,231262.0,15582.0
1679343297605769,197548.0,231233.0,15580.0
1679343297614769,197534.0,231193.0,15568.0
1679343297624769,197518.0,231261.0,15556.0
1679343297634769,197492.0,231234.0,15562.0
1679343297644769,197480.0,231225.0,15568.0
1679343297655768,197437.0,231222.0,15552.0
1679343297664769,197439.0,231253.0,15551.0
1679343297674769,197382.0,231291.0,15549.0
1679343297684769,197338.0,231271.0,15536.0
1679343297694769,197325.0,231308.0,15529.0
1679343297705768,197279.0,231305.0,15520.0
1679343297714769,197238.0,231335.0,15517.0
1679343297724769,197216.0,231335.0,15514.0
1679343297734768,197185.0,231287.0,15502.0
1679343297744768,197164.0,231333.0,15508.0
1679343297755768,197107.0,231355.0,15494.0
1679343297764768,197086.0,231378.0,15489.0
1679343297774769,197065.0,231382.0,15483.0
1679343297784769,197055.0,231371.0,15482.0
1679343297795769,197040.0,231397.0,15462.0
1679343297804769,197020.0,231434.0,15463.0
1679343297814769,197005.0,231446.0,15441.0
1679343297824769,196975.0,231439.0,15465.0
1679343297834769,196951.0,231441.0,15462.0
1679343297844769,196928.0,231453.0,15432.0
1679343297853769,196926.0,231471.0,15418.0
1679343297864769,196911.0,231480.0,15418.0
1679343297874769,196842.0,231495.0,15446.0
1679343297884769,196837.0,231532.0,15435.0
1679343297893769,196854.0,231516.0,15413.0
1679343297904769,196794.0,231536.0,15445.0
1679343297915768,196796.0,231548.0,15420.0
1679343297923768,196818.0,231552.0,15435.0
1679343297934768,196796.0,231573.0,15423.0
1679343297944768,196782.0,231572.0,15420.0
1679343297954769,196743.0,231564.0,15426.0
1679343297964769,196756.0,231592.0,15403.0
1679343297973769,196709.0,231612.0,15394.0
1679343297984769,196683.0,231612.0,15378.0
1679343297994769,196656.0,231626.0,15393.0
1679343298005769,196648.0,231642.0,15397.0
1679343298014769,196594.0,231651.0,15401.0
1679343298024769,196615.0,231654.0,15395.0
1679343298034769,196586.0,231634.0,15390.0
1679343298045769,196560.0,231626.0,15387.0
1679343298053768,196531.0,231651.0,15373.0
1679343298064768,196502.0,231645.0,15383.0
1679343298074768,196492.0,231622.0,15359.0
1679343298085768,196464.0,231661.0,15363.0
1679343298093768,196447.0,231664.0,15353.0
1679343298104768,196400.0,231674.0,15350.0
1679343298114768,196383.0,231668.0,15343.0
1679343298124768,196329.0,231653.0,15336.0
1679343298133769,196288.0,231674.0,15326.0
1679343298144769,196234.0,231640.0,15326.0
1679343298154769,196189.0,231577.0,15320.0
1679343298164769,196133.0,231559.0,15302.0
1679343298173769,196104.0,231655.0,15251.0
1679343298183769,196073.0,231586.0,15269.0
1679343298194769,196074.0,231594.0,15276.0
1679343298204769,196040.0,231619.0,15289.0
1679343298213769,196030.0,231636.0,15285.0
1679343298223769,196019.0,231608.0,15267.0
1679343298234768,196050.0,231622.0,15251.0
1679343298244768,196055.0,231615.0,15261.0
1679343298254768,196091.0,231624.0,15285.0
1679343298263769,196069.0,231634.0,15279.0
1679343298274768,196126.0,231646.0,15268.0
1679343298284768,196146.0,231659.0,15277.0
1679343298294768,196134.0,231668.0,15317.0
1679343298303768,196145.0,231661.0,15326.0
1679343298314769,196206.0,231653.0,15300.0
1679343298324769,196261.0,231674.0,15304.0
1679343298334769,196269.0,231688.0,15333.0
1679343298343769,196287.0,231701.0,15324.0
1679343298354769,196332.0,231690.0,15347.0
1679343298364769,196274.0,231690.0,15341.0
1679343298374769,196301.0,231678.0,15348.0
1679343298383769,196281.0,231686.0,15332.0
1679343298394769,196317.0,231721.0,15342.0
1679343298404769,196296.0,231674.0,15342.0
1679343298414769,196294.0,231657.0,15344.0
1679343298423769,196250.0,231649.0,15339.0
1679343298434769,196270.0,231642.0,15344.0
1679343298443769,196262.0,231623.0,15339.0
1679343298454769,196293.0,231607.0,15319.0
1679343298463769,196254.0,231621.0,15315.0
1679343298474769,196232.0,231634.0,15342.0
1679343298483769,196232.0,231619.0,15335.0
1679343298494769,196228.0,231592.0,15332.0
1679343298504769,196233.0,231591.0,15346.0
1679343298514769,196315.0,231646.0,15341.0
1679343298523769,196336.0,231584.0,15314.0
1679343298534769,196341.0,231586.0,15350.0
1679343298544769,196275.0,231565.0,15357.0
1679343298554769,196325.0,231577.0,15328.0
1679343298563769,196371.0,231564.0,15358.0
1679343298574769,196382.0,231582.0,15349.0
1679343298584769,196389.0,231582.0,15348.0
1679343298594769,196400.0,231508.0,15356.0
1679343298603769,196396.0,231536.0,15361.0
1679343298614769,196406.0,231567.0,15355.0
1679343298624769,196433.0,231587.0,15362.0
1679343298633769,196391.0,231562.0,15366.0
1679343298643769,196382.0,231573.0,15360.0
1679343298654769,196381.0,231577.0,15367.0
1679343298664769,196386.0,231554.0,15362.0
1679343298673769,196419.0,231556.0,15338.0
1679343298683769,196372.0,231550.0,15365.0
1679343298694769,196416.0,231565.0,15362.0
1679343298704769,196400.0,231566.0,15343.0
1679343298713769,196399.0,231577.0,15352.0
1679343298723769,196433.0,231575.0,15336.0
1679343298734768,196408.0,231556.0,15326.0
1679343298743769,196363.0,231543.0,15340.0
1679343298754768,196406.0,231539.0,15334.0
1679343298763769,196399.0,231558.0,15352.0
1679343298774768,196371.0,231552.0,15365.0
1679343298783769,196352.0,231547.0,15374.0
1679343298794768,196370.0,231551.0,15368.0
1679343298803768,196367.0,231555.0,15386.0
1679343298814768,196385.0,231547.0,15368.0
1679343298823768,196373.0,231562.0,15350.0
1679343298834768,196444.0,231533.0,15360.0
1679343298844768,196433.0,231545.0,15356.0
1679343298854769,196436.0,231538.0,15362.0
1679343298863769,196411.0,231500.0,15358.0
1679343298874769,196404.0,231531.0,15319.0
1679343298883769,196380.0,231512.0,15329.0
1679343298893769,196360.0,231498.0,15308.0
1679343298903769,196339.0,231482.0,15333.0
1679343298914769,196315.0,231475.0,15345.0
1679343298923769,196253.0,231490.0,15334.0
1679343298933769,196291.0,231475.0,15328.0
1679343298943769,196271.0,231491.0,15327.0
1679343298954769,196297.0,231481.0,15315.0
1679343298963769,196309.0,231484.0,15326.0
1679343298973769,196332.0,231482.0,15345.0
1679343298984768,196348.0,231452.0,15334.0
1679343298994768,196373.0,231487.0,15355.0
1679343299004768,196369.0,231478.0,15366.0
1679343299015768,196408.0,231478.0,15350.0
1679343299024768,196423.0,231485.0,15373.0
1679343299034769,196457.0,231439.0,15366.0
1679343299044769,196457.0,231478.0,15373.0
1679343299053769,196485.0,231528.0,15380.0
1679343299063769,196511.0,231481.0,15385.0
1679343299074769,196547.0,231510.0,15375.0
1679343299084769,196548.0,231536.0,15361.0
1679343299093769,196589.0,231536.0,15359.0
1679343299103769,196542.0,231473.0,15404.0
1679343299116769,196605.0,231529.0,15401.0
1679343299123769,196601.0,231544.0,15404.0
1679343299133769,196594.0,231524.0,15398.0
1679343299143769,196596.0,231528.0,15387.0
1679343299154769,196632.0,231525.0,15365.0
1679343299163769,196631.0,231518.0,15367.0
1679343299173769,196644.0,231502.0,15379.0
1679343299183769,196639.0,231498.0,15383.0
1679343299194769,196634.0,231493.0,15376.0
1679343299203769,196637.0,231484.0,15371.0
1679343299215769,196673.0,231472.0,15385.0
1679343299223769,196635.0,231471.0,15389.0
1679343299234768,196661.0,231465.0,15369.0
1679343299243769,196677.0,231441.0,15401.0
1679343299254768,196695.0,231436.0,15369.0
1679343299263769,196696.0,231454.0,15402.0
1679343299274768,196723.0,231413.0,15399.0
1679343299284768,196693.0,231366.0,15434.0
1679343299294768,196749.0,231359.0,15435.0
1679343299303768,196762.0,231340.0,15431.0
1679343299315769,196779.0,231360.0,15426.0
1679343299323768,196793.0,231347.0,15436.0
1679343299334768,196828.0,231391.0,15440.0
1679343299343768,196815.0,231384.0,15460.0
1679343299353768,196821.0,231378.0,15453.0
1679343299363768,196852.0,231328.0,15465.0
1679343299374768,196891.0,231349.0,15471.0
1679343299383768,196906.0,231312.0,15481.0
1679343299394769,196948.0,231324.0,15447.0
1679343299403769,196939.0,231314.0,15482.0
1679343299416769,196991.0,231310.0,15476.0
1679343299423769,196986.0,231317.0,15479.0
1679343299433769,196975.0,231304.0,15476.0
1679343299443769,196997.0,231298.0,15486.0
1679343299454769,196975.0,231324.0,15492.0
1679343299463769,197009.0,231297.0,15489.0
1679343299474769,197014.0,231280.0,15490.0
1679343299483769,197030.0,231242.0,15484.0
1679343299494769,197028.0,231285.0,15486.0
1679343299504769,197020.0,231251.0,15483.0
1679343299514769,197023.0,231237.0,15486.0
1679343299523769,197005.0,231286.0,15485.0
1679343299534769,197014.0,231293.0,15487.0
1679343299544769,197033.0,231258.0,15481.0
1679343299553769,197022.0,231305.0,15489.0
1679343299563769,197015.0,231298.0,15480.0
1679343299574769,197009.0,231289.0,15481.0
1679343299584769,196986.0,231281.0,15476.0
1679343299593769,196985.0,231229.0,15479.0
1679343299603769,196961.0,231233.0,15485.0
1679343299614769,196947.0,231251.0,15481.0
1679343299623769,196915.0,231231.0,15477.0
1679343299632769,196884.0,231219.0,15474.0
1679343299643769,196881.0,231204.0,15455.0
1679343299654769,196898.0,231208.0,15466.0
1679343299664769,196886.0,231185.0,15457.0
1679343299673769,196894.0,231178.0,15471.0
1679343299683769,196912.0,231176.0,15470.0
1679343299693769,196916.0,231167.0,15476.0
1679343299704769,196957.0,231176.0,15461.0
1679343299713769,196986.0,231170.0,15481.0
1679343299723769,196992.0,231170.0,15478.0
1679343299734768,197021.0,231193.0,15487.0
1679343299743769,197051.0,231178.0,15499.0
1679343299754769,197064.0,231198.0,15498.0
1679343299763769,197113.0,231185.0,15509.0
1679343299774769,197130.0,231136.0,15503.0
1679343299783769,197140.0,231119.0,15513.0
1679343299794769,197172.0,231131.0,15509.0
1679343299803769,197196.0,231117.0,15524.0
1679343299814769,197218.0,231195.0,15539.0
1679343299823769,197239.0,231103.0,15532.0
1679343299834769,197261.0,231175.0,15534.0
1679343299843769,197240.0,231174.0,15543.0
1679343299853769,197247.0,231153.0,15539.0
1679343299863769,197281.0,231128.0,15531.0
1679343299874769,197275.0,231130.0,15534.0
1679343299883769,197260.0,231116.0,15528.0
1679343299893769,197261.0,231157.0,15531.0
1679343299903769,197250.0,231131.0,15535.0
1679343299914769,197271.0,231134.0,15533.0
1679343299922768,197250.0,231145.0,15532.0
1679343299933769,197221.0,231153.0,15533.0
1679343299943769,197230.0,231145.0,15542.0
1679343299954769,197274.0,231161.0,15533.0
1679343299963769,197274.0,231139.0,15532.0
1679343299973769,197275.0,231120.0,15540.0
1679343299983769,197285.0,231113.0,15542.0
1679343299993769,197298.0,231132.0,15537.0
1679343300004768,197339.0,231110.0,15519.0
1679343300013769,197321.0,231104.0,15521.0
1679343300023769,197330.0,231121.0,15519.0
1679343300034768,197326.0,231116.0,15547.0
1679343300044768,197327.0,231114.0,15553.0
1679343300053768,197340.0,231117.0,15553.0
1679343300063768,197374.0,231081.0,15563.0
1679343300074768,197369.0,231068.0,15561.0
1679343300083768,197388.0,231035.0,15561.0
1679343300093768,197399.0,231063.0,15568.0
1679343300103768,197417.0,231029.0,15570.0
1679343300114769,197423.0,231059.0,15563.0
1679343300123769,197444.0,231062.0,15571.0
1679343300133769,197436.0,231059.0,15575.0
1679343300143769,197437.0,231032.0,15562.0
1679343300154769,197444.0,231085.0,15574.0
1679343300163769,197488.0,231111.0,15580.0
1679343300172769,197466.0,231113.0,15576.0
1679343300183769,197506.0,231130.0,15575.0
1679343300193769,197418.0,231120.0,15586.0
1679343300204769,197453.0,231111.0,15588.0
1679343300213769,197466.0,231117.0,15572.0
1679343300223769,197426.0,231118.0,15585.0
1679343300233769,197474.0,231093.0,15558.0
1679343300243769,197479.0,231081.0,15563.0
1679343300254768,197461.0,231094.0,15575.0
1679343300263769,197467.0,231104.0,15583.0
1679343300273769,197469.0,231093.0,15575.0
1679343300283769,197456.0,231084.0,15578.0
1679343300294769,197458.0,231103.0,15586.0
1679343300303769,197461.0,231115.0,15574.0
1679343300313769,197462.0,231102.0,15558.0
1679343300323769,197472.0,231094.0,15556.0
1679343300334769,197449.0,231115.0,15576.0
1679343300343769,197449.0,231091.0,15573.0
1679343300353769,197424.0,231084.0,15576.0
1679343300363769,197424.0,231090.0,15566.0
1679343300373769,197367.0,231082.0,15543.0
1679343300383769,197315.0,231078.0,15579.0
1679343300393769,197269.0,231059.0,15551.0
1679343300403769,197277.0,231063.0,15550.0
1679343300413769,197260.0,231067.0,15551.0
1679343300423769,197261.0,231076.0,15551.0
1679343300433769,197357.0,231065.0,15550.0
1679343300443769,197310.0,231075.0,15558.0
1679343300453769,197295.0,231051.0,15540.0
1679343300463769,197342.0,231075.0,15561.0
1679343300473769,197348.0,231068.0,15554.0
1679343300483769,197327.0,231034.0,15572.0
1679343300493769,197396.0,231066.0,15550.0
1679343300503769,197411.0,231073.0,15570.0
1679343300513769,197423.0,231097.0,15537.0
1679343300524769,197425.0,231088.0,15531.0
1679343300533769,197451.0,231084.0,15561.0
1679343300543769,197476.0,231111.0,15583.0
1679343300553769,197414.0,231092.0,15576.0
1679343300563769,197420.0,231101.0,15578.0
1679343300573769,197476.0,231107.0,15559.0
1679343300583769,197454.0,231094.0,15548.0
1679343300593769,197498.0,231117.0,15535.0
1679343300602769,197481.0,231096.0,15556.0
1679343300613769,197494.0,231076.0,15567.0
1679343300625769,197495.0,231076.0,15560.0
1679343300633769,197514.0,231082.0,15585.0
1679343300643769,197480.0,231048.0,15586.0
1679343300653769,197490.0,231038.0,15583.0
1679343300663769,197498.0,231014.0,15592.0
1679343300673769,197524.0,231042.0,15579.0
1679343300682769,197522.0,231034.0,15604.0
1679343300693769,197536.0,231041.0,15589.0
1679343300703769,197460.0,231026.0,15601.0
1679343300713769,197496.0,231013.0,15581.0
1679343300722769,197503.0,231062.0,15588.0
1679343300733769,197537.0,231025.0,15594.0
1679343300743769,197546.0,231023.0,15570.0
1679343300753769,197575.0,231054.0,15571.0
1679343300762769,197575.0,231032.0,15574.0
1679343300773769,197590.0,231009.0,15574.0
1679343300783769,197603.0,231003.0,15603.0
1679343300793769,197602.0,231014.0,15579.0
1679343300802769,197592.0,231013.0,15583.0
1679343300813768,197647.0,231004.0,15600.0
1679343300823768,197622.0,231010.0,15600.0
1679343300833769,197669.0,231000.0,15584.0
1679343300842769,197677.0,230991.0,15625.0
1679343300853769,197735.0,230984.0,15591.0
1679343300863769,197777.0,230967.0,15613.0
1679343300873769,197826.0,230978.0,15656.0
1679343300882769,197786.0,230965.0,15663.0
1679343300893769,197855.0,230948.0,15669.0
1679343300903769,197891.0,230956.0,15679.0
1679343300913769,197935.0,230915.0,15680.0
1679343300922769,197970.0,230925.0,15695.0
1679343300933769,198040.0,230923.0,15699.0
1679343300943769,198045.0,230898.0,15693.0
1679343300953769,198053.0,230948.0,15693.0
1679343300963769,198082.0,230939.0,15686.0
1679343300973769,198096.0,230928.0,15691.0
1679343300983769,198080.0,230938.0,15712.0
1679343300993769,198096.0,230920.0,15698.0
1679343301003769,198103.0,230917.0,15704.0
1679343301013769,198102.0,230902.0,15706.0
1679343301023769,198059.0,230922.0,15715.0
1679343301033769,198139.0,230928.0,15713.0
1679343301043769,198049.0,230897.0,15710.0
1679343301053769,198083.0,230933.0,15702.0
1679343301062769,198102.0,230937.0,15694.0
1679343301073769,198084.0,230936.0,15690.0
1679343301083769,198045.0,230881.0,15690.0
1679343301093769,198045.0,230945.0,15695.0
1679343301102769,198032.0,230926.0,15692.0
1679343301113769,197998.0,230947.0,15695.0
1679343301123769,197958.0,230938.0,15671.0
1679343301133769,197918.0,230941.0,15663.0
1679343301142769,197838.0,230928.0,15656.0
1679343301153769,197843.0,230937.0,15657.0
1679343301163769,197799.0,230918.0,15663.0
1679343301173769,197782.0,230907.0,15642.0
1679343301182769,197794.0,230913.0,15661.0
1679343301193769,197774.0,230915.0,15664.0
1679343301203769,197771.0,230908.0,15634.0
1679343301213769,197826.0,230843.0,15643.0
1679343301222769,197828.0,230855.0,15646.0
1679343301233769,197840.0,230893.0,15651.0
1679343301243769,197830.0,230901.0,15655.0
1679343301254768,197833.0,230900.0,15663.0
1679343301262768,197870.0,230825.0,15663.0
1679343301273768,197915.0,230862.0,15661.0
1679343301283768,197939.0,230864.0,15663.0
1679343301294768,197962.0,230869.0,15670.0
1679343301302768,197985.0,230855.0,15678.0
1679343301313768,198024.0,230903.0,15677.0
1679343301323768,198034.0,230884.0,15699.0
1679343301333768,198050.0,230905.0,15691.0
1679343301342768,198014.0,230873.0,15710.0
1679343301353768,198058.0,230877.0,15694.0
1679343301362768,198086.0,230875.0,15680.0
1679343301373769,198119.0,230878.0,15646.0
1679343301382769,198128.0,230877.0,15712.0
1679343301393769,198110.0,230887.0,15709.0
1679343301403769,198130.0,230877.0,15712.0
1679343301413769,198147.0,230877.0,15707.0
1679343301422769,198148.0,230826.0,15717.0
1679343301433769,198165.0,230852.0,15716.0
1679343301443769,198138.0,230791.0,15719.0
1679343301453769,198189.0,230822.0,15739.0
1679343301463769,198205.0,230807.0,15728.0
1679343301473769,198235.0,230812.0,15731.0
1679343301482769,198239.0,230778.0,15732.0
1679343301493769,198274.0,230799.0,15749.0
1679343301503769,198306.0,230716.0,15737.0
1679343301513769,198306.0,230752.0,15753.0
1679343301522769,198351.0,230752.0,15763.0
1679343301533769,198380.0,230726.0,15764.0
1679343301543769,198416.0,230763.0,15766.0
1679343301553769,198378.0,230751.0,15772.0
1679343301562769,198391.0,230733.0,15778.0
1679343301573769,198463.0,230754.0,15763.0
1679343301583769,198484.0,230732.0,15777.0
1679343301593769,198521.0,230731.0,15787.0
1679343301602769,198526.0,230671.0,15791.0
1679343301612769,198553.0,230675.0,15796.0
1679343301623769,198584.0,230679.0,15796.0
1679343301633769,198577.0,230662.0,15789.0
1679343301642769,198622.0,230615.0,15814.0
1679343301653769,198638.0,230637.0,15813.0
1679343301663769,198660.0,230584.0,15814.0
1679343301673769,198698.0,230562.0,15828.0
1679343301682769,198724.0,230563.0,15828.0
1679343301693769,198737.0,230538.0,15831.0
1679343301703769,198741.0,230526.0,15828.0
1679343301713769,198755.0,230547.0,15840.0
1679343301722769,198787.0,230521.0,15838.0
1679343301733769,198786.0,230515.0,15834.0
1679343301743769,198788.0,230616.0,15830.0
1679343301753769,198817.0,230537.0,15855.0
1679343301762769,198816.0,230530.0,15841.0
1679343301773769,198826.0,230522.0,15851.0
1679343301783769,198835.0,230577.0,15840.0
1679343301793769,198833.0,230568.0,15853.0
1679343301802769,198834.0,230591.0,15831.0
1679343301812769,198857.0,230580.0,15852.0
1679343301823769,198856.0,230572.0,15834.0
1679343301834769,198842.0,230571.0,15847.0
1679343301842769,198832.0,230577.0,15842.0
1679343301853768,198801.0,230555.0,15840.0
1679343301863768,198780.0,230571.0,15839.0
1679343301873768,198755.0,230556.0,15837.0
1679343301882768,198722.0,230550.0,15834.0
1679343301893768,198707.0,230558.0,15827.0
1679343301903768,198681.0,230559.0,15818.0
1679343301913769,198663.0,230532.0,15820.0
1679343301922769,198665.0,230570.0,15809.0
1679343301932769,198665.0,230570.0,15780.0
1679343301943769,198655.0,230586.0,15784.0
1679343301953769,198648.0,230586.0,15812.0
1679343301963769,198658.0,230584.0,15807.0
1679343301973769,198657.0,230585.0,15816.0
1679343301983769,198658.0,230577.0,15806.0
1679343301993769,198684.0,230590.0,15823.0
1679343302003769,198684.0,230581.0,15821.0
1679343302013769,198684.0,230600.0,15823.0
1679343302022769,198723.0,230607.0,15819.0
1679343302032769,198704.0,230598.0,15827.0
1679343302043769,198729.0,230604.0,15813.0
1679343302053768,198735.0,230596.0,15819.0
1679343302062769,198722.0,230566.0,15827.0
1679343302073768,198716.0,230597.0,15822.0
1679343302083768,198714.0,230608.0,15827.0
1679343302093769,198719.0,230636.0,15833.0
1679343302102769,198732.0,230570.0,15826.0
1679343302113769,198729.0,230620.0,15821.0
1679343302123769,198719.0,230624.0,15820.0
1679343302132769,198719.0,230615.0,15796.0
1679343302142769,198727.0,230625.0,15795.0
1679343302152769,198708.0,230604.0,15830.0
1679343302163769,198714.0,230605.0,15829.0
1679343302172769,198707.0,230620.0,15822.0
1679343302183769,198688.0,230624.0,15811.0
1679343302192769,198689.0,230602.0,15815.0
1679343302203769,198672.0,230623.0,15826.0
1679343302213769,198671.0,230628.0,15805.0
1679343302222769,198660.0,230630.0,15815.0
1679343302232769,198653.0,230629.0,15812.0
1679343302243769,198636.0,230647.0,15802.0
1679343302253769,198616.0,230631.0,15787.0
1679343302262769,198615.0,230676.0,15758.0
1679343302272769,198620.0,230653.0,15782.0
1679343302283769,198609.0,230663.0,15766.0
1679343302293769,198552.0,230674.0,15796.0
1679343302302769,198533.0,230663.0,15799.0
1679343302312769,198493.0,230668.0,15792.0
1679343302323768,198495.0,230688.0,15767.0
1679343302333768,198518.0,230703.0,15750.0
1679343302342769,198505.0,230736.0,15772.0
1679343302352769,198473.0,230720.0,15728.0
1679343302363768,198451.0,230728.0,15733.0
1679343302372769,198427.0,230723.0,15718.0
1679343302382768,198412.0,230754.0,15721.0
1679343302392768,198380.0,230763.0,15727.0
1679343302403768,198376.0,230751.0,15720.0
1679343302412768,198355.0,230795.0,15712.0
1679343302422768,198329.0,230782.0,15704.0
1679343302432768,198293.0,230787.0,15711.0
1679343302442768,198268.0,230831.0,15684.0
1679343302453769,198215.0,230814.0,15712.0
1679343302463769,198187.0,230826.0,15708.0
1679343302473769,198167.0,230822.0,15694.0
1679343302483769,198149.0,230843.0,15678.0
1679343302492769,198121.0,230861.0,15664.0
1679343302503769,198059.0,230881.0,15655.0
1679343302512769,198058.0,230891.0,15657.0
1679343302523769,198028.0,230939.0,15677.0
1679343302532769,197969.0,230916.0,15671.0
1679343302543769,197918.0,230923.0,15669.0
1679343302552769,197941.0,230925.0,15663.0
1679343302562769,197893.0,230933.0,15629.0
1679343302572769,197876.0,230944.0,15613.0
1679343302583768,197831.0,230947.0,15642.0
1679343302592769,197774.0,230942.0,15613.0
1679343302602769,197757.0,230938.0,15585.0
1679343302612769,197738.0,230927.0,15623.0
1679343302623768,197659.0,230943.0,15612.0
1679343302632769,197677.0,230943.0,15579.0
1679343302642769,197683.0,230975.0,15617.0
1679343302652769,197684.0,230951.0,15617.0
1679343302663769,197633.0,230949.0,15604.0
1679343302672769,197665.0,230958.0,15602.0
1679343302682769,197684.0,230979.0,15612.0
1679343302692769,197654.0,230970.0,15614.0
1679343302703769,197663.0,230899.0,15606.0
1679343302713769,197702.0,230956.0,15612.0
1679343302723769,197735.0,230943.0,15622.0
1679343302732769,197756.0,230959.0,15620.0
1679343302743769,197751.0,230995.0,15625.0
1679343302753769,197789.0,230998.0,15623.0
1679343302762769,197802.0,231011.0,15620.0
1679343302772769,197801.0,231019.0,15639.0
1679343302783769,197777.0,231021.0,15632.0
1679343302792769,197767.0,231015.0,15649.0
1679343302802769,197790.0,231010.0,15634.0
1679343302812769,197781.0,230999.0,15634.0
1679343302823769,197802.0,231011.0,15634.0
1679343302833769,197802.0,230982.0,15621.0
1679343302842769,197799.0,230994.0,15638.0
1679343302852769,197840.0,230996.0,15620.0
1679343302863769,197790.0,230999.0,15632.0
1679343302873769,197773.0,231012.0,15607.0
1679343302882769,197754.0,231008.0,15613.0
1679343302892769,197740.0,230963.0,15607.0
1679343302903769,197730.0,230981.0,15621.0
1679343302912769,197735.0,230993.0,15611.0
1679343302922769,197720.0,231013.0,15602.0
1679343302932769,197717.0,230998.0,15597.0
1679343302942769,197700.0,231019.0,15610.0
1679343302952769,197779.0,231000.0,15616.0
1679343302963769,197708.0,231000.0,15576.0
1679343302972769,197706.0,230995.0,15576.0
1679343302982769,197701.0,230987.0,15567.0
1679343302992769,197711.0,230987.0,15590.0
1679343303003769,197704.0,231012.0,15589.0
1679343303012769,197650.0,231013.0,15604.0
1679343303022769,197657.0,231022.0,15579.0
1679343303032769,197673.0,231031.0,15562.0
1679343303043769,197664.0,231033.0,15557.0
1679343303052769,197653.0,231064.0,15595.0
1679343303062769,197634.0,231116.0,15603.0
1679343303072769,197613.0,231068.0,15581.0
1679343303083768,197578.0,231087.0,15580.0
1679343303092769,197546.0,231095.0,15579.0
1679343303102769,197547.0,231119.0,15578.0
1679343303112769,197506.0,231128.0,15552.0
1679343303123768,197471.0,231108.0,15552.0
1679343303132768,197450.0,231171.0,15550.0
1679343303142768,197417.0,231162.0,15541.0
1679343303152768,197389.0,231191.0,15536.0
1679343303163768,197318.0,231194.0,15539.0
1679343303172769,197293.0,231198.0,15526.0
1679343303182769,197238.0,231254.0,15519.0
1679343303192769,197232.0,231217.0,15517.0
1679343303203769,197210.0,231264.0,15502.0
1679343303213769,197200.0,231258.0,15496.0
1679343303222769,197171.0,231232.0,15504.0
1679343303232769,197168.0,231251.0,15487.0
1679343303243769,197139.0,231250.0,15501.0
1679343303252769,197112.0,231335.0,15484.0
1679343303262769,197108.0,231282.0,15500.0
1679343303272769,197095.0,231234.0,15477.0
1679343303283769,197078.0,231262.0,15482.0
1679343303292769,197061.0,231298.0,15487.0
1679343303302769,197044.0,231244.0,15476.0
1679343303312769,197021.0,231256.0,15470.0
1679343303323768,196994.0,231316.0,15470.0
1679343303332769,196972.0,231246.0,15463.0
1679343303343768,196949.0,231256.0,15453.0
1679343303352769,196928.0,231268.0,15453.0
1679343303362769,196896.0,231310.0,15462.0
1679343303372769,196937.0,231329.0,15464.0
1679343303382769,196942.0,231340.0,15449.0
1679343303392769,196955.0,231323.0,15473.0
1679343303402769,196954.0,231300.0,15462.0
1679343303412769,196981.0,231329.0,15466.0
1679343303422769,196997.0,231343.0,15465.0
1679343303432769,196999.0,231263.0,15462.0
1679343303444769,197019.0,231322.0,15464.0
1679343303452769,197025.0,231292.0,15473.0
1679343303463769,197042.0,231362.0,15478.0
1679343303472769,197067.0,231371.0,15471.0
1679343303482769,197073.0,231375.0,15471.0
1679343303492769,197083.0,231377.0,15487.0
1679343303503769,197062.0,231379.0,15496.0
1679343303511768,197089.0,231376.0,15490.0
1679343303522768,197109.0,231354.0,15497.0
1679343303532769,197135.0,231349.0,15481.0
1679343303545769,197138.0,231366.0,15508.0
1679343303551769,197157.0,231359.0,15487.0
1679343303562769,197150.0,231348.0,15498.0
1679343303572769,197169.0,231359.0,15494.0
1679343303583769,197165.0,231384.0,15497.0
1679343303592769,197167.0,231355.0,15484.0
1679343303602769,197161.0,231320.0,15497.0
1679343303612769,197157.0,231330.0,15491.0
1679343303623769,197161.0,231321.0,15501.0
1679343303632769,197148.0,231279.0,15480.0
1679343303642769,197147.0,231311.0,15496.0
1679343303652769,197153.0,231305.0,15495.0
1679343303663769,197150.0,231343.0,15497.0
1679343303672769,197151.0,231335.0,15486.0
1679343303682769,197158.0,231357.0,15493.0
1679343303692769,197143.0,231350.0,15487.0
1679343303702769,197136.0,231368.0,15491.0
1679343303712769,197116.0,231334.0,15487.0
1679343303722769,197122.0,231356.0,15489.0
1679343303732769,197143.0,231288.0,15475.0
1679343303743769,197152.0,231282.0,15493.0
1679343303752769,197138.0,231311.0,15485.0
1679343303762769,197154.0,231307.0,15482.0
1679343303772769,197150.0,231342.0,15490.0
1679343303782769,197157.0,231352.0,15488.0
1679343303792769,197147.0,231304.0,15490.0
1679343303802769,197151.0,231347.0,15500.0
1679343303812769,197181.0,231310.0,15500.0
1679343303822769,197171.0,231293.0,15490.0
1679343303832769,197146.0,231300.0,15492.0
1679343303842769,197153.0,231253.0,15506.0
1679343303852769,197175.0,231275.0,15495.0
1679343303862769,197164.0,231348.0,15495.0
1679343303872769,197165.0,231343.0,15497.0
1679343303882768,197190.0,231334.0,15491.0
1679343303892769,197201.0,231320.0,15487.0
1679343303902769,197197.0,231327.0,15505.0
1679343303912769,197201.0,231270.0,15506.0
1679343303922769,197213.0,231250.0,15508.0
1679343303932769,197232.0,231224.0,15531.0
1679343303942769,197231.0,231288.0,15513.0
1679343303952769,197233.0,231261.0,15501.0
1679343303962769,197240.0,231192.0,15498.0
1679343303972769,197272.0,231269.0,15504.0
1679343303981769,197267.0,231283.0,15519.0
1679343303992769,197289.0,231287.0,15488.0
1679343304002769,197283.0,231258.0,15501.0
1679343304012769,197299.0,231262.0,15504.0
1679343304021769,197272.0,231262.0,15478.0
1679343304032769,197260.0,231265.0,15492.0
1679343304042769,197241.0,231236.0,15488.0
1679343304052769,197239.0,231244.0,15466.0
1679343304062769,197204.0,231221.0,15500.0
1679343304072769,197192.0,231212.0,15504.0
1679343304082769,197182.0,231207.0,15507.0
1679343304092769,197205.0,231191.0,15485.0
1679343304101769,197219.0,231181.0,15485.0
1679343304112769,197223.0,231197.0,15509.0
1679343304122769,197221.0,231178.0,15507.0
1679343304132769,197261.0,231168.0,15474.0
1679343304141769,197286.0,231171.0,15511.0
1679343304152769,197308.0,231188.0,15526.0
1679343304162769,197328.0,231180.0,15487.0
1679343304172769,197381.0,231198.0,15516.0
1679343304181769,197395.0,231167.0,15516.0
1679343304192769,197439.0,231166.0,15519.0
1679343304202769,197486.0,231168.0,15558.0
1679343304212769,197520.0,231165.0,15566.0
1679343304221769,197519.0,231146.0,15568.0
1679343304232769,197608.0,231151.0,15584.0
1679343304242769,197579.0,231143.0,15586.0
1679343304252769,197651.0,231145.0,15567.0
1679343304261769,197684.0,231141.0,15592.0
1679343304272769,197715.0,231150.0,15544.0
1679343304282769,197719.0,231131.0,15575.0
1679343304292769,197727.0,231129.0,15603.0
1679343304301769,197705.0,231127.0,15601.0
1679343304312769,197684.0,231124.0,15611.0
1679343304322769,197680.0,231130.0,15604.0
1679343304332769,197714.0,231114.0,15602.0
1679343304341769,197735.0,231110.0,15585.0
1679343304352769,197724.0,231117.0,15591.0
1679343304361769,197764.0,231098.0,15565.0
1679343304372769,197741.0,231090.0,15581.0
1679343304381769,197692.0,231107.0,15607.0
1679343304392768,197698.0,231098.0,15607.0
1679343304402768,197688.0,231082.0,15606.0
1679343304412768,197703.0,231084.0,15610.0
1679343304422768,197686.0,231071.0,15614.0
1679343304432769,197716.0,231061.0,15612.0
1679343304442769,197718.0,231076.0,15607.0
1679343304452769,197760.0,231068.0,15601.0
1679343304462769,197765.0,231073.0,15601.0
1679343304472769,197747.0,231075.0,15631.0
1679343304482769,197798.0,231059.0,15619.0
1679343304491769,197804.0,231079.0,15602.0
1679343304502769,197802.0,231076.0,15590.0
1679343304512769,197827.0,231065.0,15630.0
1679343304522769,197821.0,231082.0,15613.0
1679343304532769,197824.0,231074.0,15627.0
1679343304542769,197846.0,231063.0,15628.0
1679343304553768,197819.0,231062.0,15623.0
1679343304561768,197800.0,231062.0,15608.0
1679343304572768,197786.0,231018.0,15612.0
1679343304582768,197747.0,231051.0,15598.0
1679343304592768,197716.0,231088.0,15588.0
1679343304601768,197691.0,231069.0,15594.0
1679343304612769,197658.0,231092.0,15591.0
1679343304622769,197624.0,231079.0,15593.0
1679343304632769,197591.0,230995.0,15571.0
1679343304641769,197544.0,230998.0,15546.0
1679343304653769,197510.0,231017.0,15557.0
1679343304662769,197485.0,231011.0,15549.0
1679343304672769,197412.0,231045.0,15559.0
1679343304681769,197380.0,231029.0,15555.0
1679343304692769,197410.0,230925.0,15564.0
1679343304702769,197412.0,230923.0,15546.0
1679343304712769,197379.0,230941.0,15543.0
1679343304721769,197347.0,230920.0,15544.0
1679343304732769,197345.0,230937.0,15550.0
1679343304742769,197336.0,230918.0,15546.0
1679343304754769,197329.0,230908.0,15548.0
1679343304761769,197345.0,230932.0,15541.0
1679343304772769,197351.0,230882.0,15530.0
1679343304781769,197342.0,230870.0,15536.0
1679343304792769,197362.0,230902.0,15524.0
1679343304801769,197389.0,230901.0,15536.0
1679343304812769,197370.0,230915.0,15562.0
1679343304822769,197403.0,230931.0,15569.0
1679343304832769,197441.0,230931.0,15547.0
1679343304841769,197480.0,230969.0,15558.0
1679343304852769,197507.0,230963.0,15558.0
1679343304861769,197541.0,230988.0,15571.0
1679343304872769,197566.0,231008.0,15582.0
1679343304881769,197572.0,230992.0,15591.0
1679343304892769,197600.0,230990.0,15599.0
1679343304901769,197609.0,230989.0,15605.0
1679343304912769,197674.0,231000.0,15589.0
1679343304922769,197686.0,230974.0,15592.0
1679343304932769,197661.0,231004.0,15592.0
1679343304941769,197606.0,230996.0,15590.0
1679343304952769,197605.0,230989.0,15591.0
1679343304962769,197567.0,230969.0,15597.0
1679343304972769,197589.0,230968.0,15582.0
1679343304981769,197560.0,230974.0,15576.0
1679343304992769,197534.0,230991.0,15561.0
1679343305002769,197487.0,230979.0,15555.0
1679343305012769,197452.0,230967.0,15538.0
1679343305021769,197467.0,230933.0,15565.0
1679343305031769,197429.0,230949.0,15550.0
1679343305042769,197412.0,230911.0,15564.0
1679343305051769,197392.0,230905.0,15569.0
1679343305061769,197429.0,230904.0,15538.0
1679343305072769,197471.0,230905.0,15572.0
1679343305082769,197484.0,230894.0,15568.0
1679343305092769,197498.0,230894.0,15575.0
1679343305101769,197546.0,230899.0,15578.0
1679343305112769,197578.0,230898.0,15578.0
1679343305122769,197599.0,230880.0,15580.0
1679343305131769,197623.0,230883.0,15587.0
1679343305141769,197658.0,230895.0,15593.0
1679343305152769,197668.0,230935.0,15590.0
1679343305162769,197684.0,230956.0,15595.0
1679343305172769,197692.0,230982.0,15605.0
1679343305181769,197705.0,230941.0,15603.0
1679343305192769,197703.0,230954.0,15614.0
1679343305202769,197716.0,230998.0,15603.0
1679343305212769,197716.0,230984.0,15605.0
1679343305221769,197695.0,230971.0,15548.0
1679343305231769,197692.0,231033.0,15571.0
1679343305242769,197665.0,231058.0,15570.0
1679343305252769,197633.0,231072.0,15575.0
1679343305261769,197591.0,231086.0,15579.0
1679343305272769,197542.0,231067.0,15559.0
1679343305282769,197504.0,231051.0,15554.0
1679343305292769,197457.0,231124.0,15555.0
1679343305301769,197456.0,231137.0,15552.0
1679343305312769,197413.0,231123.0,15539.0
1679343305322769,197396.0,231156.0,15531.0
1679343305332769,197364.0,231121.0,15536.0
1679343305341769,197350.0,231093.0,15530.0
1679343305351769,197347.0,231139.0,15497.0
1679343305362769,197349.0,231126.0,15507.0
1679343305371769,197325.0,231113.0,15538.0
1679343305381769,197344.0,231124.0,15506.0
1679343305391769,197325.0,231118.0,15536.0
1679343305402769,197330.0,231107.0,15521.0
1679343305411769,197306.0,231097.0,15484.0
1679343305422769,197301.0,231069.0,15496.0
1679343305431769,197300.0,231076.0,15504.0
1679343305441769,197301.0,231069.0,15504.0
1679343305451769,197294.0,231069.0,15520.0
1679343305462769,197314.0,231062.0,15504.0
1679343305472769,197326.0,231031.0,15528.0
1679343305481769,197350.0,231025.0,15521.0
1679343305492769,197354.0,231045.0,15532.0
1679343305502769,197399.0,231003.0,15538.0
1679343305512769,197424.0,231060.0,15557.0
1679343305521769,197465.0,231063.0,15555.0
1679343305532769,197495.0,231062.0,15558.0
1679343305542769,197534.0,231052.0,15567.0
1679343305551769,197546.0,231073.0,15576.0
1679343305561769,197587.0,231071.0,15539.0
1679343305571769,197602.0,231086.0,15583.0
1679343305582769,197616.0,231065.0,15569.0
1679343305591769,197608.0,231084.0,15551.0
1679343305601769,197643.0,231099.0,15541.0
1679343305611769,197645.0,231075.0,15553.0
1679343305622769,197636.0,231082.0,15559.0
1679343305631769,197642.0,231065.0,15583.0
1679343305641769,197617.0,231068.0,15541.0
1679343305651769,197621.0,231054.0,15570.0
1679343305662768,197620.0,231072.0,15538.0
1679343305672768,197604.0,231069.0,15579.0
1679343305681769,197597.0,230995.0,15572.0
1679343305692769,197579.0,231027.0,15568.0
1679343305702769,197570.0,231009.0,15570.0
1679343305711769,197581.0,231039.0,15552.0
1679343305721769,197588.0,231032.0,15563.0
1679343305731769,197576.0,231024.0,15551.0
1679343305742769,197593.0,231040.0,15542.0
1679343305752769,197600.0,231026.0,15556.0
1679343305761769,197618.0,231021.0,15558.0
1679343305771769,197615.0,231059.0,15571.0
1679343305782769,197625.0,231030.0,15551.0
1679343305791769,197645.0,231043.0,15567.0
1679343305801769,197648.0,231053.0,15541.0
1679343305811769,197655.0,231037.0,15566.0
1679343305822769,197663.0,231049.0,15582.0
1679343305831769,197630.0,231042.0,15561.0
1679343305841769,197667.0,231071.0,15550.0
1679343305851769,197665.0,231074.0,15579.0
1679343305862769,197629.0,231087.0,15554.0
1679343305872769,197653.0,231083.0,15571.0
1679343305881769,197626.0,231084.0,15580.0
1679343305891769,197629.0,231080.0,15561.0
1679343305902769,197617.0,231079.0,15543.0
1679343305911769,197609.0,231088.0,15546.0
1679343305922769,197560.0,231118.0,15583.0
1679343305931769,197514.0,231124.0,15573.0
1679343305941769,197539.0,231111.0,15578.0
1679343305951769,197557.0,231112.0,15562.0
1679343305963769,197533.0,231162.0,15556.0
1679343305971769,197504.0,231164.0,15548.0
1679343305981769,197539.0,231120.0,15522.0
1679343305991769,197537.0,231100.0,15530.0
1679343306002769,197543.0,231104.0,15543.0
1679343306011769,197542.0,231112.0,15549.0
1679343306021769,197534.0,231106.0,15560.0
1679343306031769,197517.0,231125.0,15527.0
1679343306042769,197537.0,231106.0,15532.0
1679343306051769,197537.0,231128.0,15557.0
1679343306061769,197536.0,231101.0,15539.0
1679343306072769,197502.0,231127.0,15555.0
1679343306082769,197523.0,231142.0,15550.0
1679343306090768,197508.0,231150.0,15559.0
1679343306101768,197497.0,231133.0,15529.0
1679343306112768,197459.0,231132.0,15541.0
1679343306122768,197430.0,231126.0,15529.0
1679343306130768,197396.0,231103.0,15525.0
1679343306141768,197377.0,231091.0,15508.0
1679343306151768,197349.0,231090.0,15477.0
1679343306162768,197324.0,231118.0,15466.0
1679343306172768,197307.0,231107.0,15481.0
1679343306181768,197272.0,231087.0,15503.0
1679343306192768,197297.0,231150.0,15511.0
1679343306201768,197262.0,231117.0,15506.0
1679343306212768,197261.0,231123.0,15504.0
1679343306221768,197275.0,231122.0,15510.0
1679343306231769,197244.0,231125.0,15510.0
1679343306241769,197262.0,231122.0,15482.0
1679343306251769,197244.0,231126.0,15500.0
1679343306261769,197269.0,231163.0,15479.0
1679343306271769,197243.0,231145.0,15517.0
1679343306281769,197270.0,231174.0,15522.0
1679343306291769,197253.0,231175.0,15515.0
1679343306301769,197277.0,231192.0,15536.0
1679343306311769,197328.0,231092.0,15520.0
1679343306322769,197341.0,231128.0,15519.0
1679343306331769,197330.0,231141.0,15510.0
1679343306341769,197342.0,231134.0,15512.0
1679343306351769,197336.0,231172.0,15525.0
1679343306361769,197350.0,231196.0,15532.0
1679343306371769,197345.0,231192.0,15521.0
1679343306381769,197313.0,231171.0,15524.0
1679343306391769,197310.0,231168.0,15502.0
1679343306401769,197313.0,231165.0,15488.0
1679343306411769,197324.0,231156.0,15503.0
1679343306422769,197327.0,231154.0,15485.0
1679343306431769,197277.0,231153.0,15518.0
1679343306441769,197309.0,231153.0,15504.0
1679343306451769,197302.0,231137.0,15495.0
1679343306462769,197270.0,231172.0,15516.0
1679343306471769,197243.0,231152.0,15521.0
1679343306481769,197304.0,231121.0,15545.0
1679343306491769,197292.0,231159.0,15512.0
1679343306502769,197292.0,231151.0,15505.0
1679343306511769,197280.0,231143.0,15528.0
1679343306521769,197294.0,231137.0,15514.0
1679343306531769,197307.0,231159.0,15514.0
1679343306542769,197300.0,231169.0,15516.0
1679343306551769,197301.0,231120.0,15511.0
1679343306561769,197303.0,231144.0,15514.0
1679343306571769,197308.0,231162.0,15507.0
1679343306582769,197289.0,231169.0,15524.0
1679343306590769,197267.0,231162.0,15519.0
1679343306601769,197271.0,231154.0,15520.0
1679343306611769,197299.0,231167.0,15508.0
1679343306622769,197294.0,231174.0,15511.0
1679343306631769,197306.0,231181.0,15503.0
1679343306641769,197289.0,231129.0,15519.0
1679343306651769,197299.0,231110.0,15512.0
1679343306662768,197306.0,231117.0,15492.0
1679343306671769,197301.0,231152.0,15509.0
1679343306681769,197276.0,231153.0,15504.0
1679343306691769,197278.0,231201.0,15493.0
1679343306702768,197274.0,231133.0,15505.0
1679343306711768,197276.0,231153.0,15496.0
1679343306721768,197270.0,231180.0,15509.0
1679343306731768,197269.0,231138.0,15513.0
1679343306742768,197238.0,231159.0,15505.0
1679343306751768,197242.0,231161.0,15489.0
1679343306761768,197239.0,231142.0,15490.0
1679343306771769,197223.0,231175.0,15489.0
1679343306781769,197232.0,231189.0,15500.0
1679343306791769,197222.0,231126.0,15505.0
1679343306801769,197228.0,231182.0,15502.0
1679343306811769,197244.0,231121.0,15500.0
1679343306822769,197222.0,231153.0,15496.0
1679343306831769,197204.0,231145.0,15499.0
1679343306840769,197186.0,231110.0,15508.0
1679343306851769,197176.0,231154.0,15480.0
1679343306861769,197160.0,231112.0,15495.0
1679343306871769,197141.0,231104.0,15486.0
1679343306881769,197145.0,231105.0,15486.0
1679343306891769,197131.0,231098.0,15480.0
1679343306901769,197142.0,231107.0,15475.0
1679343306911769,197156.0,231105.0,15483.0
1679343306922768,197161.0,231114.0,15487.0
1679343306930768,197153.0,231105.0,15516.0
1679343306941768,197197.0,231094.0,15506.0
1679343306951769,197232.0,231093.0,15484.0
1679343306962769,197254.0,231101.0,15539.0
1679343306971769,197289.0,231056.0,15504.0
1679343306981769,197311.0,231029.0,15505.0
1679343306991769,197325.0,231082.0,15515.0
1679343307002769,197365.0,231058.0,15538.0
1679343307011769,197383.0,231080.0,15534.0
1679343307021769,197423.0,231077.0,15580.0
1679343307031769,197440.0,231064.0,15549.0
1679343307042769,197462.0,231045.0,15554.0
1679343307051769,197460.0,231010.0,15548.0
1679343307061769,197485.0,231065.0,15550.0
1679343307072769,197462.0,231056.0,15543.0
1679343307082769,197471.0,231061.0,15535.0
1679343307090768,197477.0,231025.0,15547.0
1679343307101768,197472.0,230995.0,15559.0
1679343307111768,197479.0,231010.0,15537.0
1679343307121768,197466.0,231042.0,15534.0
1679343307131769,197457.0,231032.0,15517.0
1679343307140769,197457.0,231034.0,15525.0
1679343307151769,197427.0,231078.0,15539.0
1679343307161769,197405.0,231068.0,15534.0
1679343307172769,197379.0,231081.0,15530.0
1679343307180769,197404.0,231030.0,15526.0
1679343307191769,197357.0,231075.0,15535.0
1679343307201769,197354.0,231073.0,15530.0
1679343307212768,197405.0,231058.0,15524.0
1679343307221768,197403.0,231051.0,15531.0
1679343307230769,197399.0,231078.0,15563.0
1679343307241768,197416.0,231082.0,15524.0
1679343307251768,197392.0,231103.0,15540.0
1679343307261768,197387.0,231097.0,15495.0
1679343307270769,197395.0,231104.0,15517.0
1679343307281768,197402.0,231076.0,15520.0
1679343307292768,197395.0,231045.0,15525.0
1679343307300768,197396.0,231038.0,15516.0
1679343307311769,197377.0,231069.0,15529.0
1679343307321769,197372.0,231084.0,15538.0
1679343307332769,197403.0,231088.0,15531.0
1679343307341769,197413.0,231087.0,15527.0
1679343307350769,197400.0,231096.0,15509.0
1679343307361769,197384.0,231106.0,15499.0
1679343307371769,197397.0,231105.0,15512.0
1679343307381769,197390.0,231100.0,15508.0
1679343307390769,197360.0,231099.0,15534.0
1679343307401769,197363.0,231106.0,15535.0
1679343307411769,197354.0,231089.0,15522.0
1679343307421769,197332.0,231094.0,15525.0
1679343307430769,197370.0,231094.0,15508.0
1679343307441769,197401.0,231096.0,15493.0
1679343307451769,197401.0,231103.0,15497.0
1679343307461768,197399.0,231087.0,15490.0
1679343307470769,197387.0,231087.0,15483.0
1679343307481768,197389.0,231092.0,15500.0
1679343307491769,197375.0,231094.0,15527.0
1679343307501769,197375.0,231062.0,15528.0
1679343307510769,197401.0,231074.0,15515.0
1679343307521769,197400.0,231079.0,15525.0
1679343307531769,197393.0,231091.0,15489.0
1679343307541769,197319.0,231088.0,15532.0
1679343307550769,197301.0,231063.0,15522.0
1679343307561769,197301.0,231068.0,15522.0
1679343307571769,197299.0,231002.0,15516.0
1679343307581769,197276.0,231006.0,15507.0
1679343307590769,197226.0,231051.0,15519.0
1679343307601769,197201.0,231051.0,15512.0
1679343307610769,197198.0,231024.0,15516.0
1679343307621769,197212.0,231028.0,15502.0
1679343307630769,197237.0,231032.0,15498.0
1679343307641769,197275.0,231035.0,15478.0
1679343307650769,197286.0,231032.0,15483.0
1679343307661769,197254.0,231036.0,15524.0
1679343307671769,197279.0,231044.0,15502.0
1679343307681769,197325.0,231036.0,15493.0
1679343307690769,197282.0,231041.0,15521.0
1679343307701769,197318.0,231073.0,15499.0
1679343307711769,197340.0,231045.0,15502.0
1679343307721769,197355.0,231064.0,15519.0
1679343307731769,197341.0,231062.0,15524.0
1679343307741769,197332.0,231060.0,15567.0
1679343307751769,197397.0,231035.0,15535.0
1679343307761769,197409.0,231000.0,15542.0
1679343307770769,197383.0,230990.0,15543.0
1679343307781769,197397.0,231029.0,15538.0
1679343307791769,197358.0,231070.0,15535.0
1679343307800769,197391.0,231102.0,15521.0
1679343307810769,197372.0,231076.0,15534.0
1679343307821769,197327.0,231055.0,15531.0
1679343307831769,197320.0,231048.0,15547.0
1679343307840769,197329.0,231072.0,15534.0
1679343307850769,197308.0,231036.0,15523.0
1679343307861769,197327.0,231036.0,15524.0
1679343307871769,197331.0,231038.0,15526.0
1679343307880769,197327.0,231046.0,15513.0
1679343307890769,197292.0,231038.0,15522.0
1679343307901769,197299.0,231087.0,15513.0
1679343307911769,197263.0,231038.0,15519.0
1679343307922768,197274.0,231043.0,15551.0
1679343307930768,197336.0,231025.0,15514.0
1679343307941768,197316.0,231036.0,15513.0
1679343307951768,197312.0,231013.0,15522.0
1679343307961768,197317.0,231015.0,15517.0
1679343307970768,197302.0,231021.0,15521.0
1679343307981768,197311.0,231010.0,15522.0
1679343307991768,197310.0,230969.0,15503.0
1679343308001768,197297.0,231015.0,15507.0
1679343308010768,197296.0,231022.0,15516.0
1679343308021768,197293.0,231047.0,15519.0
1679343308031769,197307.0,231057.0,15502.0
1679343308041769,197298.0,231049.0,15512.0
1679343308050769,197317.0,230988.0,15519.0
1679343308061769,197298.0,230977.0,15516.0
1679343308071769,197305.0,231001.0,15518.0
1679343308081769,197294.0,230979.0,15514.0
1679343308090769,197360.0,231043.0,15511.0
1679343308100769,197256.0,231047.0,15555.0
1679343308111769,197321.0,231015.0,15521.0
1679343308120769,197320.0,231024.0,15527.0
1679343308130769,197305.0,231021.0,15522.0
1679343308141769,197314.0,231014.0,15510.0
1679343308151769,197326.0,231021.0,15516.0
1679343308160769,197315.0,231006.0,15514.0
1679343308171769,197336.0,231005.0,15513.0
1679343308181769,197357.0,231005.0,15524.0
1679343308190769,197344.0,231059.0,15512.0
1679343308201769,197335.0,231001.0,15529.0
1679343308211769,197362.0,231012.0,15524.0
1679343308221769,197371.0,231009.0,15541.0
1679343308230769,197374.0,230962.0,15535.0
1679343308241769,197389.0,230935.0,15540.0
1679343308251769,197390.0,230926.0,15533.0
1679343308261769,197403.0,230919.0,15541.0
1679343308271769,197404.0,230942.0,15531.0
1679343308281769,197383.0,230957.0,15553.0
1679343308291769,197400.0,230975.0,15527.0
1679343308301769,197368.0,230907.0,15541.0
1679343308310769,197347.0,230880.0,15534.0
1679343308321769,197351.0,230883.0,15517.0
1679343308331769,197328.0,230868.0,15515.0
1679343308340769,197329.0,230892.0,15529.0
1679343308350769,197354.0,230895.0,15531.0
1679343308361769,197357.0,230908.0,15527.0
1679343308371769,197383.0,230899.0,15530.0
1679343308381769,197394.0,230869.0,15557.0
1679343308390769,197426.0,230916.0,15534.0
1679343308401769,197422.0,230894.0,15551.0
1679343308411769,197489.0,230904.0,15548.0
1679343308421769,197501.0,230909.0,15554.0
1679343308430769,197508.0,230920.0,15581.0
1679343308441769,197542.0,230895.0,15575.0
1679343308451769,197576.0,230917.0,15567.0
