time,ecg,hr,rr,marker
1680103365358852242,-0.027,78
1680103365366548282,-0.029
1680103365374244322,-0.065
1680103365381940362,-0.069
1680103365389636402,-0.056
1680103365397332442,-0.079
1680103365405028482,-0.13
1680103365412724522,-0.138
1680103365420420562,-0.113
1680103365428116602,-0.128
1680103365435812642,-0.155
1680103365443508682,-0.134
1680103365451204722,-0.105
1680103365458900762,-0.109
1680103365466596802,-0.111
1680103365474292842,-0.092
1680103365481988882,-0.084
1680103365489684922,-0.088
1680103365497380962,-0.082
1680103365505077002,-0.061
1680103365512773042,-0.042
1680103365520469082,-0.05
1680103365528165122,-0.046
1680103365535861162,-0.008
1680103365543557202,0.023
1680103365551253242,0.025
1680103365558949282,0.031
1680103365566645322,0.067
1680103365574341362,0.105
1680103365582037402,0.117
1680103365589733442,0.1
1680103365597429482,0.09
1680103365605125522,0.113
1680103365612821562,0.122
1680103365620517602,0.115
1680103365628213642,0.145
1680103365635909682,0.17
1680103365643605722,0.17200000000000001
1680103365651301762,0.185
1680103365658997802,0.199
1680103365666693842,0.193
1680103365674389882,0.178
1680103365682085922,0.185
1680103365689781962,0.216
1680103365697478002,0.227
1680103365705174042,0.21
1680103365712870082,0.218
1680103365720566122,0.246
1680103365728262162,0.256
1680103365735958202,0.256
1680103365743654242,0.271,,757
1680103365751350282,0.28300000000000003
1680103365759046322,0.273
1680103365766742362,0.271
1680103365774438402,0.292
1680103365782134442,0.309
1680103365789830482,0.3
1680103365797526522,0.29
1680103365805222562,0.302
1680103365812918602,0.317
1680103365820614642,0.317
1680103365828310682,0.309
1680103365836006722,0.28600000000000003
1680103365843702762,0.258
1680103365851398802,0.256
1680103365859094842,0.26
1680103365866790882,0.258
1680103365874486922,0.26
1680103365882182962,0.23700000000000002
1680103365889879002,0.199
1680103365897575042,0.22
1680103365905271082,0.28300000000000003
1680103365912967122,0.296
1680103365920663192,0.294
1680103365928359232,0.321
1680103365936055272,0.321
1680103365943751312,0.298
1680103365951447352,0.28300000000000003
1680103365959143392,0.269
1680103365966839432,0.26
1680103365974535472,0.254
1680103365982231512,0.077
1680103365989927552,-0.427
1680103365997623592,-1.0010000000000001
1680103366005319632,-0.999
1680103366013015672,-0.193
1680103366020711712,0.456
1680103366028407752,0.218
1680103366036103792,-0.124
1680103366043799832,-0.042
1680103366051495872,0.012
1680103366059191912,-0.061
1680103366066887952,-0.063
1680103366074583992,-0.056
1680103366082280032,-0.113
1680103366089976072,-0.183
1680103366097672112,-0.222
1680103366105368152,-0.225
1680103366113064192,-0.218
1680103366120760232,-0.246
1680103366128456272,-0.267
1680103366136152312,-0.241
1680103366143848352,-0.214
1680103366151544392,-0.218
1680103366159240432,-0.22
1680103366166936472,-0.20400000000000001
1680103366174632512,-0.189
1680103366182328552,-0.183
1680103366190024592,-0.164
1680103366197720632,-0.138
1680103366205416672,-0.145
1680103366213112712,-0.164
1680103366220808752,-0.147
1680103366228504792,-0.11900000000000001
1680103366236200832,-0.107
1680103366243896872,-0.08600000000000001
1680103366251592912,-0.058
1680103366259288952,-0.035
1680103366266984992,-0.008
1680103366274681032,0.023
1680103366282377072,0.048
1680103366290073112,0.08600000000000001
1680103366297769152,0.128
1680103366305465192,0.147
1680103366313161232,0.168
1680103366320857272,0.20600000000000002
1680103366328553312,0.214
1680103366336249352,0.20600000000000002
1680103366343945392,0.227
1680103366351641432,0.25
1680103366359337472,0.23700000000000002
1680103366367033512,0.22
1680103366374729552,0.23500000000000001
1680103366382425592,0.262
1680103366390121632,0.258
1680103366397817672,0.233
1680103366405513712,0.246
1680103366413209752,0.277
1680103366420905792,0.281
1680103366428601832,0.28800000000000003
1680103366436297872,0.313
1680103366443993912,0.326
1680103366451689952,0.313
1680103366459385992,0.305
1680103366467082032,0.315,,726
1680103366474778072,0.33
1680103366482474140,0.336,78
1680103366490170180,0.332
1680103366497866220,0.336
1680103366505562260,0.357
1680103366513258300,0.376
1680103366520954340,0.393
1680103366528650380,0.40800000000000003
1680103366536346420,0.374
1680103366544042460,0.294
1680103366551738500,0.256
1680103366559434540,0.28300000000000003
1680103366567130580,0.302
1680103366574826620,0.279
1680103366582522660,0.252
1680103366590218700,0.23500000000000001
1680103366597914740,0.193
1680103366605610780,0.122
1680103366613306820,0.084
1680103366621002860,0.088
1680103366628698900,0.096
1680103366636394940,0.10300000000000001
1680103366644090980,0.11900000000000001
1680103366651787020,0.145
1680103366659483060,0.155
1680103366667179100,0.159
1680103366674875140,0.157
1680103366682571180,0.14
1680103366690267220,0.124
1680103366697963260,0.128
1680103366705659300,0.05
1680103366713355340,-0.326
1680103366721051380,-0.91
1680103366728747420,-1.117
1680103366736443460,-0.515
1680103366744139500,0.298
1680103366751835540,0.361
1680103366759531580,-0.004
1680103366767227620,-0.023
1680103366774923660,0.069
1680103366782619700,-0.012
1680103366790315740,-0.048
1680103366798011780,-0.006
1680103366805707820,-0.006
1680103366813403860,-0.031
1680103366821099900,-0.056
1680103366828795940,-0.075
1680103366836491980,-0.073
1680103366844188020,-0.067
1680103366851884060,-0.063
1680103366859580100,-0.063
1680103366867276140,-0.08600000000000001
1680103366874972180,-0.098
1680103366882668220,-0.075
1680103366890364260,-0.05
1680103366898060300,-0.058
1680103366905756340,-0.075
1680103366913452380,-0.061
1680103366921148420,-0.035
1680103366928844460,-0.031
1680103366936540500,-0.027
1680103366944236540,-0.01
1680103366951932580,-0.008
1680103366959628620,-0.023
1680103366967324660,-0.018000000000000002
1680103366975020700,0.018000000000000002
1680103366982716740,0.054
1680103366990412780,0.063
1680103366998108820,0.063
1680103367005804860,0.09
1680103367013500900,0.138
1680103367021196940,0.18
1680103367028892980,0.218
1680103367036589020,0.254
1680103367044285088,0.267
1680103367051980989,0.269
1680103367059676890,0.26
1680103367067372791,0.23500000000000001
1680103367075068692,0.214
1680103367082764593,0.21
1680103367090460494,0.195
1680103367098156395,0.151
1680103367105852296,0.063
1680103367113548197,-0.025
1680103367121244098,-0.035
1680103367128939999,-0.021
1680103367136635900,-0.05
1680103367144331801,-0.07100000000000001
1680103367152027702,-0.044
1680103367159723603,-0.014
1680103367167419504,-0.006
1680103367175115405,-0.002
1680103367182811306,0.012
1680103367190507207,0.031
1680103367198203108,0.05,,726
1680103367205899009,0.065
1680103367213594910,0.088
1680103367221290811,0.113
1680103367228986712,0.11900000000000001
1680103367236682613,0.115
1680103367244378514,0.126
1680103367252074415,0.155
1680103367259770316,0.18
1680103367267466217,0.187
1680103367275162118,0.189
1680103367282858019,0.20800000000000002
1680103367290553920,0.227
1680103367298249821,0.23700000000000002
1680103367305945722,0.244
1680103367313641623,0.218
1680103367321337524,0.166
1680103367329033425,0.155
1680103367336729326,0.195
1680103367344425227,0.20400000000000001
1680103367352121128,0.18
1680103367359817029,0.17200000000000001
1680103367367512930,0.168
1680103367375208831,0.17
1680103367382904732,0.20400000000000001
1680103367390600633,0.25
1680103367398296534,0.254
1680103367405992435,0.212
1680103367413688336,0.166
1680103367421384237,0.17
1680103367429080138,0.197
1680103367436776039,0.185
1680103367444471940,0.151
1680103367452167841,0.147
1680103367459863742,0.084
1680103367467559643,-0.273
1680103367475255544,-0.858
1680103367482951445,-1.159
1680103367490647346,-0.679
1680103367498343247,0.20600000000000002
1680103367506039148,0.452
1680103367513735049,0.08600000000000001
1680103367521430950,-0.016
1680103367529126851,0.1
1680103367536822752,0.07100000000000001
1680103367544518653,0.033
1680103367552214554,0.046
1680103367559910455,0.006
1680103367567606356,-0.031
1680103367575302257,-0.008
1680103367582998158,0.01
1680103367590694059,-0.004
1680103367598389960,-0.046
1680103367606085862,-0.109,79
1680103367613781623,-0.14300000000000002
1680103367621477384,-0.134
1680103367629173145,-0.134
1680103367636868906,-0.145
1680103367644564667,-0.145
1680103367652260428,-0.14
1680103367659956189,-0.13
1680103367667651950,-0.117
1680103367675347711,-0.13
1680103367683043472,-0.178
1680103367690739233,-0.212
1680103367698434994,-0.199
1680103367706130755,-0.185
1680103367713826516,-0.185
1680103367721522277,-0.161
1680103367729218038,-0.126
1680103367736913799,-0.126
1680103367744609560,-0.128
1680103367752305321,-0.079
1680103367760001082,-0.031
1680103367767696843,-0.014
1680103367775392604,0.012
1680103367783088365,0.052000000000000005
1680103367790784126,0.092
1680103367798479887,0.13
1680103367806175648,0.136
1680103367813871409,0.132
1680103367821567170,0.147
1680103367829262931,0.147
1680103367836958692,0.138
1680103367844654453,0.153
1680103367852350214,0.17200000000000001
1680103367860045975,0.17
1680103367867741736,0.17200000000000001
1680103367875437497,0.185
1680103367883133258,0.193
1680103367890829019,0.195
1680103367898524780,0.21
1680103367906220541,0.233
1680103367913916302,0.233
1680103367921612063,0.214,,727
1680103367929307824,0.22
1680103367937003585,0.252
1680103367944699346,0.267
1680103367952395107,0.269
1680103367960090868,0.281
1680103367967786629,0.3
1680103367975482390,0.307
1680103367983178151,0.319
1680103367990873912,0.338
1680103367998569673,0.34500000000000003
1680103368006265434,0.338
1680103368013961195,0.33
1680103368021656956,0.332
1680103368029352717,0.34900000000000003
1680103368037048478,0.361
1680103368044744239,0.353
1680103368052440000,0.319
1680103368060135761,0.28800000000000003
1680103368067831522,0.28300000000000003
1680103368075527283,0.298
1680103368083223044,0.302
1680103368090918805,0.309
1680103368098614566,0.302
1680103368106310327,0.231
1680103368114006088,0.136
1680103368121701849,0.092
1680103368129397610,0.067
1680103368137093371,0.046
1680103368144789132,0.065
1680103368152484893,0.069
1680103368160180654,0.042
1680103368167876466,0.033
1680103368175572506,0.029
1680103368183268546,0.008
1680103368190964586,-0.042
1680103368198660626,-0.10300000000000001
1680103368206356666,-0.109
1680103368214052706,-0.136
1680103368221748746,-0.448
1680103368229444786,-1.0010000000000001
1680103368237140826,-1.325
1680103368244836866,-0.931
1680103368252532906,-0.054
1680103368260228946,0.3
1680103368267924986,-0.025
1680103368275621026,-0.197
1680103368283317066,-0.115
1680103368291013106,-0.147
1680103368298709146,-0.214
1680103368306405186,-0.201
1680103368314101226,-0.195
1680103368321797266,-0.193
1680103368329493306,-0.161
1680103368337189346,-0.155
1680103368344885386,-0.17
1680103368352581426,-0.153
1680103368360277466,-0.126
1680103368367973506,-0.122
1680103368375669546,-0.11900000000000001
1680103368383365586,-0.109
1680103368391061626,-0.096
1680103368398757666,-0.08600000000000001
1680103368406453706,-0.077
1680103368414149746,-0.056
1680103368421845786,-0.042
1680103368429541826,-0.052000000000000005
1680103368437237866,-0.061
1680103368444933906,-0.037
1680103368452629946,-0.012
1680103368460325986,-0.006
1680103368468022026,-0.006
1680103368475718066,0.004
1680103368483414106,0.016
1680103368491110146,0.023
1680103368498806186,0.037
1680103368506502226,0.09
1680103368514198266,0.138
1680103368521894306,0.147
1680103368529590346,0.159
1680103368537286386,0.20400000000000001
1680103368544982426,0.222
1680103368552678466,0.20800000000000002
1680103368560374506,0.20800000000000002
1680103368568070546,0.22
1680103368575766586,0.227
1680103368583462626,0.227
1680103368591158666,0.233
1680103368598854706,0.26
1680103368606550746,0.279
1680103368614246786,0.23900000000000002
1680103368621942826,0.17400000000000002
1680103368629638866,0.168
1680103368637334906,0.17200000000000001,,714
1680103368645030946,0.149
1680103368652726986,0.147
1680103368660423026,0.166
1680103368668119066,0.164
1680103368675815106,0.17
1680103368683511146,0.199
1680103368691207186,0.214
1680103368698903226,0.197
1680103368706599266,0.185
1680103368714295306,0.20600000000000002
1680103368721991346,0.23700000000000002
1680103368729687414,0.25,80
1680103368737383454,0.254
1680103368745079494,0.277
1680103368752775534,0.279
1680103368760471574,0.225
1680103368768167614,0.17
1680103368775863654,0.17
1680103368783559694,0.176
1680103368791255734,0.147
1680103368798951774,0.115
1680103368806647814,0.122
1680103368814343854,0.14
1680103368822039894,0.138
1680103368829735934,0.14
1680103368837431974,0.157
1680103368845128014,0.132
1680103368852824054,0.084
1680103368860520094,0.077
1680103368868216134,0.107
1680103368875912174,0.111
1680103368883608214,0.073
1680103368891304254,0.025
1680103368899000294,-0.008
1680103368906696334,-0.065
1680103368914392374,-0.128
1680103368922088414,-0.117
1680103368929784454,-0.063
1680103368937480494,-0.067
1680103368945176534,-0.1
1680103368952872574,-0.082
1680103368960568614,-0.052000000000000005
1680103368968264654,-0.054
1680103368975960694,-0.065
1680103368983656734,-0.054
1680103368991352774,-0.018000000000000002
1680103368999048814,-0.039
1680103369006744854,-0.311
1680103369014440894,-0.8160000000000001
1680103369022136934,-1.1480000000000001
1680103369029832974,-0.801
1680103369037529014,0.05
1680103369045225054,0.41600000000000004
1680103369052921094,0.107
1680103369060617134,-0.031
1680103369068313174,0.088
1680103369076009214,0.067
1680103369083705254,0.012
1680103369091401294,0.056
1680103369099097334,0.079
1680103369106793374,0.077
1680103369114489414,0.07100000000000001
1680103369122185454,0.021
1680103369129881494,-0.012
1680103369137577534,0.002
1680103369145273574,-0.002
1680103369152969614,-0.016
1680103369160665654,-0.002
1680103369168361694,0.014
1680103369176057734,0.014
1680103369183753774,0.018000000000000002
1680103369191449814,0.033
1680103369199145854,0.054
1680103369206841894,0.058
1680103369214537934,0.042
1680103369222233974,0.039
1680103369229930014,0.061
1680103369237626054,0.07100000000000001
1680103369245322094,0.069
1680103369253018134,0.088
1680103369260714174,0.115
1680103369268410214,0.115
1680103369276106254,0.088
1680103369283802294,0.065
1680103369291498364,0.067,80
1680103369299194404,0.082
1680103369306890444,0.088
1680103369314586484,0.111
1680103369322282524,0.161
1680103369329978564,0.201
1680103369337674604,0.225
1680103369345370644,0.252,,712
1680103369353066684,0.246
1680103369360762724,0.187
1680103369368458764,0.149
1680103369376154804,0.17200000000000001
1680103369383850844,0.189
1680103369391546884,0.166
1680103369399242924,0.153
1680103369406938964,0.168
1680103369414635004,0.17200000000000001
1680103369422331044,0.161
1680103369430027084,0.176
1680103369437723124,0.20400000000000001
1680103369445419164,0.20400000000000001
1680103369453115204,0.191
1680103369460811244,0.199
1680103369468507284,0.218
1680103369476203324,0.241
1680103369483899364,0.248
1680103369491595404,0.23900000000000002
1680103369499291444,0.246
1680103369506987484,0.256
1680103369514683524,0.256
1680103369522379564,0.26
1680103369530075604,0.246
1680103369537771644,0.201
1680103369545467684,0.178
1680103369553163724,0.185
1680103369560859764,0.17400000000000002
1680103369568555804,0.149
1680103369576251844,0.128
1680103369583947884,0.117
1680103369591643924,0.107
1680103369599339964,0.084
1680103369607036004,0.05
1680103369614732044,0.031
1680103369622428084,-0.023
1680103369630124124,-0.126
1680103369637820164,-0.18
1680103369645516204,-0.155
1680103369653212244,-0.134
1680103369660908284,-0.14300000000000002
1680103369668604324,-0.157
1680103369676300364,-0.17
1680103369683996404,-0.187
1680103369691692444,-0.201
1680103369699388484,-0.20800000000000002
1680103369707084524,-0.183
1680103369714780564,-0.136
1680103369722476604,-0.111
1680103369730172644,-0.105
1680103369737868684,-0.082
1680103369745564724,-0.058
1680103369753260764,-0.052000000000000005
1680103369760956804,-0.042
1680103369768652844,-0.052000000000000005
1680103369776348884,-0.096
1680103369784044924,-0.105
1680103369791740964,-0.159
1680103369799437004,-0.498
1680103369807133044,-1.03
1680103369814829084,-1.209
1680103369822525124,-0.595
1680103369830221164,0.271
1680103369837917204,0.368
1680103369845613244,0.002
1680103369853309312,0.0
1680103369861005352,0.126
1680103369868701392,0.07100000000000001
1680103369876397432,0.054
1680103369884093472,0.117
1680103369891789512,0.134
1680103369899485552,0.122
1680103369907181592,0.11900000000000001
1680103369914877632,0.128
1680103369922573672,0.132
1680103369930269712,0.09
1680103369937965752,0.031
1680103369945661792,0.025
1680103369953357832,0.031
1680103369961053872,0.008
1680103369968749912,0.012
1680103369976445952,0.042
1680103369984141992,0.052000000000000005
1680103369991838032,0.039
1680103369999534072,0.033
1680103370007230112,0.05
1680103370014926152,0.063
1680103370022622192,0.044
1680103370030318232,0.012
1680103370038014272,0.006
1680103370045710312,0.002
1680103370053406352,0.002
1680103370061102392,0.031
1680103370068798432,0.065
1680103370076494472,0.07100000000000001,,726
1680103370084190512,0.077
1680103370091886552,0.10300000000000001
1680103370099582592,0.136
1680103370107278632,0.17200000000000001
1680103370114974672,0.20800000000000002
1680103370122670712,0.225
1680103370130366752,0.189
1680103370138062792,0.13
1680103370145758832,0.117
1680103370153454872,0.149
1680103370161150912,0.168
1680103370168846952,0.161
1680103370176542992,0.155
1680103370184239032,0.159
1680103370191935072,0.17
1680103370199631112,0.17200000000000001
1680103370207327152,0.176
1680103370215023192,0.197
1680103370222719232,0.214
1680103370230415272,0.201
1680103370238111312,0.189
1680103370245807352,0.212
1680103370253503392,0.244
1680103370261199432,0.246
1680103370268895472,0.227
1680103370276591512,0.201
1680103370284287552,0.17200000000000001
1680103370291983592,0.128
1680103370299679632,0.105
1680103370307375672,0.128
1680103370315071712,0.136
1680103370322767752,0.09
1680103370330463792,0.048
1680103370338159832,0.048
1680103370345855872,0.023
1680103370353551912,-0.027
1680103370361247952,-0.037
1680103370368943992,-0.031
1680103370376640032,-0.046
1680103370384336072,-0.056
1680103370392032112,-0.046
1680103370399728152,-0.035
1680103370407424192,-0.035
1680103370415120260,-0.044,80
1680103370422816300,-0.042
1680103370430512340,-0.014
1680103370438208380,0.012
1680103370445904420,0.016
1680103370453600460,0.021
1680103370461296500,0.018000000000000002
1680103370468992540,-0.039
1680103370476688580,-0.109
1680103370484384620,-0.11900000000000001
1680103370492080660,-0.111
1680103370499776700,-0.111
1680103370507472740,-0.10300000000000001
1680103370515168780,-0.115
1680103370522864820,-0.136
1680103370530560860,-0.11900000000000001
1680103370538256900,-0.1
1680103370545952940,-0.107
1680103370553648980,-0.1
1680103370561345020,-0.069
1680103370569041060,-0.018000000000000002
1680103370576737100,0.027
1680103370584433140,-0.079
1680103370592129180,-0.498
1680103370599825220,-1.016
1680103370607521260,-1.045
1680103370615217300,-0.305
1680103370622913340,0.47500000000000003
1680103370630609380,0.41200000000000003
1680103370638305420,0.014
1680103370646001460,-0.025
1680103370653697500,0.016
1680103370661393540,-0.031
1680103370669089580,-0.002
1680103370676785620,0.048
1680103370684481660,0.027
1680103370692177700,0.008
1680103370699873740,0.025
1680103370707569780,0.037
1680103370715265820,0.042
1680103370722961860,0.065
1680103370730657900,0.094
1680103370738353940,0.1
1680103370746049980,0.088
1680103370753746020,0.073
1680103370761442060,0.046
1680103370769138100,0.016
1680103370776834140,0.004
1680103370784530180,0.002
1680103370792226220,0.0
1680103370799922260,-0.008
1680103370807618300,-0.018000000000000002
1680103370815314340,-0.012
1680103370823010380,-0.002
1680103370830706420,-0.016,,756
1680103370838402460,-0.021
1680103370846098500,0.01
1680103370853794540,0.046
1680103370861490580,0.063
1680103370869186620,0.079
1680103370876882660,0.096
1680103370884578700,0.105
1680103370892274740,0.128
1680103370899970780,0.189
1680103370907666820,0.262
1680103370915362860,0.3
1680103370923058900,0.298
1680103370930754940,0.298
1680103370938450980,0.336
1680103370946147020,0.376
1680103370953843060,0.374
1680103370961539100,0.361
1680103370969235140,0.355
1680103370976931208,0.33
1680103370984627387,0.315
1680103370992323566,0.342
1680103371000019745,0.355
1680103371007715924,0.307
1680103371015412103,0.246
1680103371023108282,0.23500000000000001
1680103371030804461,0.23900000000000002
1680103371038500640,0.187
1680103371046196819,0.107
1680103371053892998,0.092
1680103371061589177,0.109
1680103371069285356,0.077
1680103371076981535,0.025
1680103371084677714,0.002
1680103371092373893,-0.008
1680103371100070072,-0.05
1680103371107766251,-0.094
1680103371115462430,-0.09
1680103371123158609,-0.077
1680103371130854788,-0.117
1680103371138550967,-0.17200000000000001
1680103371146247146,-0.18
1680103371153943325,-0.18
1680103371161639504,-0.214
1680103371169335683,-0.218
1680103371177031862,-0.183
1680103371184728041,-0.164
1680103371192424220,-0.166
1680103371200120399,-0.161
1680103371207816578,-0.14
1680103371215512757,-0.11900000000000001
1680103371223208936,-0.096
1680103371230905115,-0.061
1680103371238601294,-0.042
1680103371246297473,-0.069
1680103371253993652,-0.109
1680103371261689831,-0.11900000000000001
1680103371269386010,-0.107
1680103371277082189,-0.105
1680103371284778368,-0.107
1680103371292474547,-0.073
1680103371300170726,-0.025
1680103371307866905,0.0
1680103371315563084,0.018000000000000002
1680103371323259263,0.044
1680103371330955442,0.039
1680103371338651621,0.021
1680103371346347800,0.031
1680103371354043979,0.084
1680103371361740158,0.13
1680103371369436337,0.052000000000000005
1680103371377132516,-0.309
1680103371384828695,-0.8240000000000001
1680103371392524874,-0.965
1680103371400221053,-0.317
1680103371407917232,0.532
1680103371415613411,0.591
1680103371423309590,0.22
1680103371431005769,0.20600000000000002
1680103371438701948,0.311
1680103371446398127,0.275
1680103371454094306,0.279
1680103371461790485,0.319
1680103371469486664,0.305
1680103371477182843,0.294
1680103371484879022,0.315
1680103371492575201,0.321
1680103371500271380,0.3
1680103371507967559,0.277
1680103371515663738,0.265
1680103371523359917,0.244
1680103371531056096,0.229
1680103371538752327,0.248,80
1680103371546448228,0.256
1680103371554144129,0.23900000000000002
1680103371561840030,0.23500000000000001
1680103371569535931,0.23500000000000001
1680103371577231832,0.197
1680103371584927733,0.134,,755
1680103371592623634,0.115
1680103371600319535,0.136
1680103371608015436,0.122
1680103371615711337,0.069
1680103371623407238,0.061
1680103371631103139,0.082
1680103371638799040,0.048
1680103371646494941,0.004
1680103371654190842,0.025
1680103371661886743,0.046
1680103371669582644,0.035
1680103371677278545,0.069
1680103371684974446,0.134
1680103371692670347,0.161
1680103371700366248,0.161
1680103371708062149,0.178
1680103371715758050,0.20600000000000002
1680103371723453951,0.229
1680103371731149852,0.244
1680103371738845753,0.248
1680103371746541654,0.22
1680103371754237555,0.17200000000000001
1680103371761933456,0.145
1680103371769629357,0.14300000000000002
1680103371777325258,0.149
1680103371785021159,0.155
1680103371792717060,0.126
1680103371800412961,0.075
1680103371808108862,0.069
1680103371815804763,0.08600000000000001
1680103371823500664,0.082
1680103371831196565,0.073
1680103371838892466,0.039
1680103371846588367,-0.023
1680103371854284268,-0.069
1680103371861980169,-0.082
1680103371869676070,-0.082
1680103371877371971,-0.084
1680103371885067872,-0.092
1680103371892763773,-0.092
1680103371900459674,-0.079
1680103371908155575,-0.063
1680103371915851476,-0.056
1680103371923547377,-0.05
1680103371931243278,-0.042
1680103371938939179,-0.054
1680103371946635080,-0.061
1680103371954330981,-0.027
1680103371962026882,0.01
1680103371969722783,0.008
1680103371977418684,-0.012
1680103371985114585,-0.021
1680103371992810486,-0.035
1680103372000506387,-0.058
1680103372008202288,-0.044
1680103372015898189,-0.004
1680103372023594090,0.01
1680103372031289991,0.002
1680103372038985892,-0.004
1680103372046681793,0.0
1680103372054377694,0.0
1680103372062073595,-0.01
1680103372069769496,-0.006
1680103372077465397,0.033
1680103372085161298,0.088
1680103372092857199,0.107
1680103372100553104,0.105
1680103372108249562,0.128
1680103372115946020,0.147
1680103372123642478,0.124
1680103372131338936,0.122
1680103372139035394,0.138
1680103372146731852,0.08600000000000001
1680103372154428310,-0.021
1680103372162124768,-0.254
1680103372169821226,-0.753
1680103372177517684,-1.196
1680103372185214142,-0.9480000000000001
1680103372192910600,-0.056
1680103372200607058,0.46
1680103372208303516,0.20600000000000002
1680103372215999974,0.0
1680103372223696432,0.111
1680103372231392890,0.107
1680103372239089348,0.031
1680103372246785806,0.065
1680103372254482264,0.096
1680103372262178722,0.079
1680103372269875180,0.084
1680103372277571638,0.105
1680103372285268096,0.11900000000000001
1680103372292964554,0.134
1680103372300661012,0.134
1680103372308357470,0.128
1680103372316053928,0.138
1680103372323750386,0.151
1680103372331446844,0.153
1680103372339143302,0.153
1680103372346839760,0.157
1680103372354536218,0.157
1680103372362232676,0.157
1680103372369929134,0.168,,785
1680103372377625592,0.18
1680103372385322050,0.193
1680103372393018508,0.201
1680103372400714966,0.191
1680103372408411424,0.178
1680103372416107882,0.176
1680103372423804340,0.17400000000000002
1680103372431500798,0.195
1680103372439197256,0.233
1680103372446893714,0.241
1680103372454590172,0.23700000000000002
1680103372462286630,0.273
1680103372469983088,0.334
1680103372477679546,0.37
1680103372485376004,0.37
1680103372493072462,0.34900000000000003
1680103372500768920,0.34
1680103372508465378,0.34700000000000003
1680103372516161836,0.35100000000000003
1680103372523858294,0.366
1680103372531554752,0.384
1680103372539251210,0.376
1680103372546947668,0.359
1680103372554644126,0.372
1680103372562340584,0.389
1680103372570037042,0.376
1680103372577733500,0.336
1680103372585429958,0.28300000000000003
1680103372593126416,0.258
1680103372600822874,0.26
1680103372608519332,0.256
1680103372616215790,0.23700000000000002
1680103372623912248,0.20400000000000001
1680103372631608706,0.155
1680103372639305164,0.08600000000000001
1680103372647001622,-0.01
1680103372654698080,-0.08600000000000001
1680103372662394572,-0.1,80
1680103372670090612,-0.10300000000000001
1680103372677786652,-0.122
1680103372685482692,-0.132
1680103372693178732,-0.126
1680103372700874772,-0.115
1680103372708570812,-0.098
1680103372716266852,-0.088
1680103372723962892,-0.111
1680103372731658932,-0.161
1680103372739354972,-0.193
1680103372747051012,-0.216
1680103372754747052,-0.258
1680103372762443092,-0.269
1680103372770139132,-0.25
1680103372777835172,-0.262
1680103372785531212,-0.275
1680103372793227252,-0.23900000000000002
1680103372800923292,-0.193
1680103372808619332,-0.197
1680103372816315372,-0.212
1680103372824011412,-0.178
1680103372831707452,-0.138
1680103372839403492,-0.128
1680103372847099532,-0.117
1680103372854795572,-0.111
1680103372862491612,-0.126
1680103372870187652,-0.126
1680103372877883692,-0.08600000000000001
1680103372885579732,-0.033
1680103372893275772,-0.002
1680103372900971812,0.006
1680103372908667852,0.012
1680103372916363892,0.033
1680103372924059932,0.067
1680103372931755972,0.092
1680103372939452012,0.111
1680103372947148052,0.136
1680103372954844092,0.05
1680103372962540132,-0.309
1680103372970236172,-0.8180000000000001
1680103372977932212,-0.99
1680103372985628252,-0.403
1680103372993324292,0.435
1680103373001020332,0.534
1680103373008716372,0.193
1680103373016412412,0.164
1680103373024108452,0.212
1680103373031804492,0.149
1680103373039500532,0.178
1680103373047196572,0.227
1680103373054892612,0.197
1680103373062588652,0.197
1680103373070284692,0.233
1680103373077980732,0.23900000000000002
1680103373085676772,0.23500000000000001
1680103373093372812,0.233
1680103373101068852,0.22
1680103373108764892,0.216
1680103373116460932,0.229
1680103373124156972,0.246
1680103373131853012,0.248
1680103373139549052,0.227
1680103373147245092,0.183
1680103373154941132,0.124
1680103373162637172,0.08600000000000001,,790
1680103373170333212,0.084
1680103373178029252,0.067
1680103373185725292,0.033
1680103373193421332,0.023
1680103373201117372,0.031
1680103373208813412,0.039
1680103373216509452,0.039
1680103373224205520,0.012,79
1680103373231901769,-0.023
1680103373239598018,-0.014
1680103373247294267,0.031
1680103373254990516,0.069
1680103373262686765,0.092
1680103373270383014,0.109
1680103373278079263,0.132
1680103373285775512,0.134
1680103373293471761,0.1
1680103373301168010,0.094
1680103373308864259,0.14300000000000002
1680103373316560508,0.159
1680103373324256757,0.138
1680103373331953006,0.14
1680103373339649255,0.17400000000000002
1680103373347345504,0.189
1680103373355041753,0.176
1680103373362738002,0.161
1680103373370434251,0.14300000000000002
1680103373378130500,0.107
1680103373385826749,0.08600000000000001
1680103373393522998,0.109
1680103373401219247,0.13
1680103373408915496,0.092
1680103373416611745,0.035
1680103373424307994,0.021
1680103373432004243,0.008
1680103373439700492,-0.031
1680103373447396741,-0.05
1680103373455092990,-0.05
1680103373462789239,-0.073
1680103373470485488,-0.109
1680103373478181737,-0.117
1680103373485877986,-0.1
1680103373493574235,-0.092
1680103373501270484,-0.092
1680103373508966733,-0.08600000000000001
1680103373516662982,-0.067
1680103373524359231,-0.061
1680103373532055480,-0.073
1680103373539751729,-0.058
1680103373547447978,-0.029
1680103373555144227,-0.035
1680103373562840476,-0.042
1680103373570536725,-0.018000000000000002
1680103373578232974,0.01
1680103373585929223,0.029
1680103373593625472,0.037
1680103373601321721,0.05
1680103373609017970,0.075
1680103373616714219,0.092
1680103373624410468,0.082
1680103373632106717,0.077
1680103373639802966,0.08600000000000001
1680103373647499215,0.07100000000000001
1680103373655195464,0.029
1680103373662891713,-0.006
1680103373670587962,-0.012
1680103373678284211,0.0
1680103373685980460,0.0
1680103373693676709,0.002
1680103373701372958,0.027
1680103373709069207,0.039
1680103373716765456,0.016
1680103373724461705,0.01
1680103373732157954,0.048
1680103373739854203,0.014
1680103373747550452,-0.256
1680103373755246701,-0.74
1680103373762942950,-1.066
1680103373770639199,-0.685
1680103373778335448,0.229
1680103373786031728,0.586
1680103373793727977,0.229
1680103373801424226,0.077
1680103373809120475,0.20600000000000002
1680103373816816724,0.199
1680103373824512973,0.151
1680103373832209222,0.14
1680103373839905471,0.098
1680103373847601720,0.084
1680103373855297969,0.109
1680103373862994218,0.117
1680103373870690467,0.115
1680103373878386716,0.107
1680103373886082965,0.096
1680103373893779214,0.109
1680103373901475463,0.134
1680103373909171712,0.14300000000000002
1680103373916867961,0.134
1680103373924564210,0.124
1680103373932260459,0.134
1680103373939956708,0.157
1680103373947652957,0.153
1680103373955349206,0.13,,791
1680103373963045455,0.096
1680103373970741704,0.058
1680103373978437953,0.033
1680103373986134202,0.029
1680103373993830451,0.05
1680103374001526700,0.073
1680103374009222949,0.061
1680103374016919198,0.052000000000000005
1680103374024615447,0.084
1680103374032311696,0.122
1680103374040007945,0.147
1680103374047704194,0.187
1680103374055400443,0.23500000000000001
1680103374063096692,0.25
1680103374070792941,0.25
1680103374078489190,0.275
1680103374086185439,0.319
1680103374093881688,0.34500000000000003
1680103374101577937,0.34500000000000003
1680103374109274186,0.34
1680103374116970435,0.35100000000000003
1680103374124666684,0.37
1680103374132362933,0.363
1680103374140059182,0.34900000000000003
1680103374147755431,0.355
1680103374155451680,0.34700000000000003
1680103374163147929,0.28300000000000003
1680103374170844178,0.195
1680103374178540427,0.153
1680103374186236676,0.159
1680103374193932925,0.134
1680103374201629174,0.063
1680103374209325423,-0.002
1680103374217021672,-0.042
1680103374224717921,-0.092
1680103374232414170,-0.134
1680103374240110419,-0.132
1680103374247806668,-0.132
1680103374255502917,-0.149
1680103374263199166,-0.136
1680103374270895415,-0.111
1680103374278591664,-0.109
1680103374286287913,-0.111
1680103374293984162,-0.10300000000000001
1680103374301680411,-0.105
1680103374309376660,-0.111
1680103374317072909,-0.1
1680103374324769158,-0.069
1680103374332465407,-0.048
1680103374340161656,-0.063
1680103374347857934,-0.067,79
1680103374355553974,-0.033
1680103374363250014,0.0
1680103374370946054,0.01
1680103374378642094,0.012
1680103374386338134,0.008
1680103374394034174,-0.002
1680103374401730214,-0.029
1680103374409426254,-0.056
1680103374417122294,-0.035
1680103374424818334,-0.01
1680103374432514374,-0.027
1680103374440210414,-0.042
1680103374447906454,-0.037
1680103374455602494,-0.073
1680103374463298534,-0.115
1680103374470994574,-0.094
1680103374478690614,-0.044
1680103374486386654,-0.035
1680103374494082694,-0.05
1680103374501778734,-0.027
1680103374509474774,0.014
1680103374517170814,0.031
1680103374524866854,0.025
1680103374532562894,0.044
1680103374540258934,0.094
1680103374547954974,0.105
1680103374555651014,-0.08600000000000001
1680103374563347054,-0.549
1680103374571043094,-0.98
1680103374578739134,-0.793
1680103374586435174,0.065
1680103374594131214,0.61
1680103374601827254,0.366
1680103374609523294,0.153
1680103374617219334,0.271
1680103374624915374,0.294
1680103374632611414,0.25
1680103374640307454,0.28600000000000003
1680103374648003494,0.302
1680103374655699534,0.29
1680103374663395574,0.292
1680103374671091614,0.258
1680103374678787654,0.185
1680103374686483694,0.161
1680103374694179734,0.178
1680103374701875774,0.145
1680103374709571814,0.096
1680103374717267854,0.10300000000000001
1680103374724963894,0.11900000000000001
1680103374732659934,0.111
1680103374740355974,0.11900000000000001,,786
1680103374748052014,0.138
1680103374755748054,0.126
1680103374763444094,0.098
1680103374771140134,0.105
1680103374778836174,0.109
1680103374786532214,0.084
1680103374794228254,0.067
1680103374801924294,0.077
1680103374809620334,0.094
1680103374817316374,0.105
1680103374825012414,0.113
1680103374832708454,0.136
1680103374840404494,0.161
1680103374848100534,0.166
1680103374855796574,0.17
1680103374863492614,0.214
1680103374871188654,0.271
1680103374878884694,0.307
1680103374886580734,0.315
1680103374894276774,0.309
1680103374901972814,0.323
1680103374909668882,0.34500000000000003
1680103374917364922,0.34700000000000003
1680103374925060962,0.353
1680103374932757002,0.372
1680103374940453042,0.355
1680103374948149082,0.296
1680103374955845122,0.246
1680103374963541162,0.222
1680103374971237202,0.17200000000000001
1680103374978933242,0.098
1680103374986629282,0.058
1680103374994325322,0.031
1680103375002021362,-0.014
1680103375009717402,-0.069
1680103375017413442,-0.094
1680103375025109482,-0.098
1680103375032805522,-0.117
1680103375040501562,-0.132
1680103375048197602,-0.113
1680103375055893642,-0.096
1680103375063589682,-0.10300000000000001
1680103375071285722,-0.107
1680103375078981762,-0.096
1680103375086677802,-0.088
1680103375094373842,-0.075
1680103375102069882,-0.056
1680103375109765922,-0.048
1680103375117461962,-0.061
1680103375125158002,-0.065
1680103375132854042,-0.046
1680103375140550082,-0.023
1680103375148246122,-0.012
1680103375155942162,0.0
1680103375163638202,0.012
1680103375171334242,-0.016
1680103375179030282,-0.092
1680103375186726322,-0.14
1680103375194422362,-0.151
1680103375202118402,-0.166
1680103375209814442,-0.183
1680103375217510482,-0.187
1680103375225206522,-0.166
1680103375232902562,-0.126
1680103375240598602,-0.109
1680103375248294642,-0.105
1680103375255990682,-0.098
1680103375263686722,-0.109
1680103375271382762,-0.122
1680103375279078802,-0.094
1680103375286774842,-0.029
1680103375294470882,0.01
1680103375302166922,0.006
1680103375309862962,0.008
1680103375317559002,0.039
1680103375325255042,0.067
1680103375332951082,0.073
1680103375340647122,0.094
1680103375348343162,0.136
1680103375356039202,0.147
1680103375363735242,0.006
1680103375371431282,-0.395
1680103375379127322,-0.862
1680103375386823362,-0.873
1680103375394519402,-0.14300000000000002
1680103375402215442,0.61
1680103375409911482,0.546
1680103375417607522,0.216
1680103375425303562,0.271
1680103375432999602,0.338
1680103375440695642,0.231
1680103375448391682,0.183
1680103375456087722,0.201
1680103375463783762,0.193
1680103375471479830,0.193,78
1680103375479176288,0.214
1680103375486872746,0.212
1680103375494569204,0.20400000000000001
1680103375502265662,0.201
1680103375509962120,0.155
1680103375517658578,0.092
1680103375525355036,0.098,,789
1680103375533051494,0.124
1680103375540747952,0.094
1680103375548444410,0.073
1680103375556140868,0.096
1680103375563837326,0.109
1680103375571533784,0.10300000000000001
1680103375579230242,0.109
1680103375586926700,0.113
1680103375594623158,0.10300000000000001
1680103375602319616,0.082
1680103375610016074,0.075
1680103375617712532,0.109
1680103375625408990,0.14
1680103375633105448,0.13
1680103375640801906,0.136
1680103375648498364,0.176
1680103375656194822,0.195
1680103375663891280,0.201
1680103375671587738,0.229
1680103375679284196,0.22
1680103375686980654,0.153
1680103375694677112,0.128
1680103375702373570,0.17400000000000002
1680103375710070028,0.20600000000000002
1680103375717766486,0.20400000000000001
1680103375725462944,0.187
1680103375733159402,0.17
1680103375740855860,0.159
1680103375748552318,0.149
1680103375756248776,0.14300000000000002
1680103375763945234,0.151
1680103375771641692,0.122
1680103375779338150,0.042
1680103375787034608,-0.01
1680103375794731066,-0.016
1680103375802427524,-0.029
1680103375810123982,-0.063
1680103375817820440,-0.092
1680103375825516898,-0.084
1680103375833213356,-0.067
1680103375840909814,-0.079
1680103375848606272,-0.08600000000000001
1680103375856302730,-0.077
1680103375863999188,-0.082
1680103375871695646,-0.082
1680103375879392104,-0.065
1680103375887088562,-0.048
1680103375894785020,-0.044
1680103375902481478,-0.039
1680103375910177936,-0.031
1680103375917874394,-0.014
1680103375925570852,0.002
1680103375933267310,0.0
1680103375940963768,-0.002
1680103375948660226,0.006
1680103375956356684,-0.018000000000000002
1680103375964053142,-0.042
1680103375971749600,-0.01
1680103375979446058,0.031
1680103375987142516,0.042
1680103375994838974,0.048
1680103376002535432,0.069
1680103376010231890,0.1
1680103376017928348,0.109
1680103376025624806,0.092
1680103376033321298,0.10300000000000001
1680103376041017338,0.128
1680103376048713378,0.11900000000000001
1680103376056409418,0.092
1680103376064105458,0.10300000000000001
1680103376071801498,0.155
1680103376079497538,0.201
1680103376087193578,0.222
1680103376094889618,0.231
1680103376102585658,0.21
1680103376110281698,0.147
1680103376117977738,0.109
1680103376125673778,0.134
1680103376133369818,0.159
1680103376141065858,0.155
1680103376148761898,0.109
1680103376156457938,-0.132
1680103376164153978,-0.597
1680103376171850018,-0.894
1680103376179546058,-0.502
1680103376187242098,0.315
1680103376194938138,0.53
1680103376202634178,0.138
1680103376210330218,0.006
1680103376218026258,0.111
1680103376225722298,0.084
1680103376233418338,0.044
1680103376241114378,0.08600000000000001
1680103376248810418,0.122
1680103376256506458,0.124
1680103376264202498,0.115
1680103376271898538,0.107
1680103376279594578,0.111
1680103376287290618,0.11900000000000001
1680103376294986658,0.122
1680103376302682698,0.14
1680103376310378738,0.17
1680103376318074778,0.18
1680103376325770818,0.17200000000000001,,797
1680103376333466858,0.157
1680103376341162898,0.149
1680103376348858938,0.157
1680103376356554978,0.17200000000000001
1680103376364251018,0.176
1680103376371947058,0.176
1680103376379643098,0.159
1680103376387339138,0.149
1680103376395035178,0.17400000000000002
1680103376402731218,0.20400000000000001
1680103376410427258,0.193
1680103376418123298,0.155
1680103376425819338,0.13
1680103376433515378,0.124
1680103376441211418,0.134
1680103376448907458,0.151
1680103376456603498,0.185
1680103376464299538,0.225
1680103376471995578,0.254
1680103376479691618,0.28600000000000003
1680103376487387658,0.321
1680103376495083698,0.332
1680103376502779738,0.319
1680103376510475778,0.319
1680103376518171818,0.34500000000000003
1680103376525867858,0.355
1680103376533563898,0.323
1680103376541259938,0.296
1680103376548955978,0.311
1680103376556652018,0.296
1680103376564348058,0.222
1680103376572044098,0.17200000000000001
1680103376579740138,0.17
1680103376587436178,0.153
1680103376595132246,0.098,78
1680103376602828286,0.056
1680103376610524326,0.052000000000000005
1680103376618220366,0.054
1680103376625916406,0.048
1680103376633612446,0.058
1680103376641308486,0.037
1680103376649004526,-0.048
1680103376656700566,-0.1
1680103376664396606,-0.096
1680103376672092646,-0.134
1680103376679788686,-0.183
1680103376687484726,-0.197
1680103376695180766,-0.25
1680103376702876806,-0.3
1680103376710572846,-0.279
1680103376718268886,-0.246
1680103376725964926,-0.231
1680103376733660966,-0.23700000000000002
1680103376741357006,-0.265
1680103376749053046,-0.254
1680103376756749086,-0.199
1680103376764445126,-0.17
1680103376772141166,-0.168
1680103376779837206,-0.151
1680103376787533246,-0.117
1680103376795229286,-0.09
1680103376802925326,-0.088
1680103376810621366,-0.084
1680103376818317406,-0.044
1680103376826013446,-0.029
1680103376833709486,-0.069
1680103376841405526,-0.079
1680103376849101566,-0.044
1680103376856797606,-0.018000000000000002
1680103376864493646,0.018000000000000002
1680103376872189686,0.077
1680103376879885726,0.092
1680103376887581766,0.065
1680103376895277806,0.067
1680103376902973846,0.109
1680103376910669886,0.126
1680103376918365926,0.088
1680103376926061966,0.061
1680103376933758006,0.098
1680103376941454046,0.061
1680103376949150086,-0.273
1680103376956846126,-0.788
1680103376964542166,-0.99
1680103376972238206,-0.454
1680103376979934246,0.387
1680103376987630286,0.54
1680103376995326326,0.201
1680103377003022366,0.185
1680103377010718406,0.309
1680103377018414446,0.252
1680103377026110486,0.233
1680103377033806526,0.309
1680103377041502566,0.307
1680103377049198606,0.254
1680103377056894646,0.258
1680103377064590686,0.28300000000000003
1680103377072286726,0.273
1680103377079982766,0.269
1680103377087678806,0.294
1680103377095374846,0.309
1680103377103070886,0.3
1680103377110766926,0.298,,787
1680103377118462966,0.315
1680103377126159006,0.309
1680103377133855046,0.275
1680103377141551086,0.262
1680103377149247126,0.28800000000000003
1680103377156943194,0.28300000000000003
1680103377164639652,0.231
1680103377172336110,0.195
1680103377180032568,0.20800000000000002
1680103377187729026,0.233
1680103377195425484,0.212
1680103377203121942,0.122
1680103377210818400,0.052000000000000005
1680103377218514858,0.044
1680103377226211316,0.016
1680103377233907774,-0.006
1680103377241604232,0.018000000000000002
1680103377249300690,0.037
1680103377256997148,0.048
1680103377264693606,0.094
1680103377272390064,0.149
1680103377280086522,0.17
1680103377287782980,0.18
1680103377295479438,0.195
1680103377303175896,0.193
1680103377310872354,0.185
1680103377318568812,0.17200000000000001
1680103377326265270,0.147
1680103377333961728,0.124
1680103377341658186,0.111
1680103377349354644,0.105
1680103377357051102,0.094
1680103377364747560,0.067
1680103377372444018,0.035
1680103377380140476,0.006
1680103377387836934,-0.033
1680103377395533392,-0.056
1680103377403229850,-0.07100000000000001
1680103377410926308,-0.111
1680103377418622766,-0.136
1680103377426319224,-0.13
1680103377434015682,-0.14
1680103377441712140,-0.149
1680103377449408598,-0.117
1680103377457105056,-0.09
1680103377464801514,-0.082
1680103377472497972,-0.079
1680103377480194430,-0.094
1680103377487890888,-0.105
1680103377495587346,-0.088
1680103377503283804,-0.052000000000000005
1680103377510980262,-0.027
1680103377518676720,-0.018000000000000002
1680103377526373178,-0.014
1680103377534069636,0.016
1680103377541766094,0.033
1680103377549462552,0.002
1680103377557159010,0.002
1680103377564855468,0.054
1680103377572551926,0.067
1680103377580248384,0.046
1680103377587944842,0.067
1680103377595641300,0.11900000000000001
1680103377603337758,0.157
1680103377611034216,0.161
1680103377618730674,0.13
1680103377626427132,0.096
1680103377634123590,0.082
1680103377641820048,0.084
1680103377649516506,0.109
1680103377657212964,0.128
1680103377664909422,0.10300000000000001
1680103377672605880,0.079
1680103377680302338,0.098
1680103377687998796,0.128
1680103377695695254,0.157
1680103377703391712,0.149
1680103377711088170,0.069
1680103377718784660,0.029,78
1680103377726481048,0.067
1680103377734177436,-0.07100000000000001
1680103377741873824,-0.528
1680103377749570212,-1.0010000000000001
1680103377757266600,-0.978
1680103377764962988,-0.248
1680103377772659376,0.441
1680103377780355764,0.309
1680103377788052152,-0.046
1680103377795748540,0.01
1680103377803444928,0.107
1680103377811141316,0.056
1680103377818837704,0.048
1680103377826534092,0.075
1680103377834230480,0.08600000000000001
1680103377841926868,0.105
1680103377849623256,0.111
1680103377857319644,0.105
1680103377865016032,0.126
1680103377872712420,0.14300000000000002
1680103377880408808,0.134
1680103377888105196,0.136
1680103377895801584,0.13
1680103377903497972,0.073
1680103377911194360,0.018000000000000002
1680103377918890748,0.031,,810
1680103377926587136,0.069
1680103377934283524,0.07100000000000001
1680103377941979912,0.054
1680103377949676300,0.054
1680103377957372688,0.07100000000000001
1680103377965069076,0.077
1680103377972765464,0.061
1680103377980461852,0.052000000000000005
1680103377988158240,0.063
1680103377995854628,0.079
1680103378003551016,0.092
1680103378011247404,0.113
1680103378018943792,0.157
1680103378026640180,0.193
1680103378034336568,0.189
1680103378042032956,0.185
1680103378049729344,0.227
1680103378057425732,0.277
1680103378065122120,0.298
1680103378072818508,0.315
1680103378080514896,0.336
1680103378088211284,0.34500000000000003
1680103378095907672,0.34700000000000003
1680103378103604060,0.372
1680103378111300448,0.397
1680103378118996836,0.372
1680103378126693224,0.3
1680103378134389612,0.26
1680103378142086000,0.26
1680103378149782388,0.231
1680103378157478776,0.191
1680103378165175164,0.178
1680103378172871552,0.147
1680103378180567940,0.10300000000000001
1680103378188264328,0.073
1680103378195960716,0.016
1680103378203657104,-0.05
1680103378211353492,-0.107
1680103378219049880,-0.155
1680103378226746268,-0.166
1680103378234442656,-0.151
1680103378242139044,-0.153
1680103378249835432,-0.149
1680103378257531820,-0.11900000000000001
1680103378265228208,-0.107
1680103378272924596,-0.136
1680103378280621038,-0.153,77
1680103378288317148,-0.122
1680103378296013258,-0.096
1680103378303709368,-0.109
1680103378311405478,-0.109
1680103378319101588,-0.08600000000000001
1680103378326797698,-0.09
1680103378334493808,-0.134
1680103378342189918,-0.134
1680103378349886028,-0.098
1680103378357582138,-0.153
1680103378365278248,-0.254
1680103378372974358,-0.241
1680103378380670468,-0.17400000000000002
1680103378388366578,-0.168
1680103378396062688,-0.197
1680103378403758798,-0.195
1680103378411454908,-0.17
1680103378419151018,-0.164
1680103378426847128,-0.17200000000000001
1680103378434543238,-0.164
1680103378442239348,-0.157
1680103378449935458,-0.168
1680103378457631568,-0.14
1680103378465327678,-0.079
1680103378473023788,-0.048
1680103378480719898,-0.037
1680103378488416008,-0.012
1680103378496112118,0.012
1680103378503808228,0.031
1680103378511504338,0.035
1680103378519200448,0.048
1680103378526896558,0.096
1680103378534592668,0.065
1680103378542288778,-0.244
1680103378549984888,-0.746
1680103378557680998,-0.98
1680103378565377108,-0.47300000000000003
1680103378573073218,0.42
1680103378580769328,0.673
1680103378588465438,0.317
1680103378596161548,0.197
1680103378603857658,0.279
1680103378611553768,0.25
1680103378619249878,0.244
1680103378626945988,0.294
1680103378634642098,0.271
1680103378642338208,0.21
1680103378650034318,0.201
1680103378657730428,0.20800000000000002
1680103378665426538,0.193
1680103378673122648,0.185
1680103378680818758,0.185
1680103378688514868,0.17
1680103378696210978,0.166
1680103378703907088,0.183
1680103378711603198,0.178
1680103378719299308,0.105
1680103378726995418,0.023
1680103378734691528,0.014,,811
1680103378742387638,0.035
1680103378750083748,0.016
1680103378757779858,-0.004
1680103378765475968,0.01
1680103378773172078,0.008
1680103378780868188,-0.016
1680103378788564298,-0.01
1680103378796260408,0.029
1680103378803956518,0.048
1680103378811652628,0.025
1680103378819348738,0.01
1680103378827044848,0.044
1680103378834740958,0.088
1680103378842437074,0.113
1680103378850133114,0.151
1680103378857829154,0.21
1680103378865525194,0.233
1680103378873221234,0.18
1680103378880917274,0.113
1680103378888613314,0.088
1680103378896309354,0.073
1680103378904005394,0.054
1680103378911701434,0.058
1680103378919397474,0.073
1680103378927093514,0.075
1680103378934789554,0.067
1680103378942485594,0.052000000000000005
1680103378950181634,0.033
1680103378957877674,0.014
1680103378965573714,0.0
1680103378973269754,0.0
1680103378980965794,-0.006
1680103378988661834,-0.039
1680103378996357874,-0.088
1680103379004053914,-0.13
1680103379011749954,-0.14300000000000002
1680103379019445994,-0.136
1680103379027142034,-0.134
1680103379034838074,-0.11900000000000001
1680103379042534114,-0.098
1680103379050230154,-0.10300000000000001
1680103379057926194,-0.126
1680103379065622234,-0.124
1680103379073318274,-0.1
1680103379081014314,-0.08600000000000001
1680103379088710354,-0.077
1680103379096406394,-0.067
1680103379104102434,-0.052000000000000005
1680103379111798474,-0.037
1680103379119494514,-0.018000000000000002
1680103379127190554,-0.002
1680103379134886594,-0.037
1680103379142582634,-0.098
1680103379150278674,-0.096
1680103379157974714,-0.061
1680103379165670754,-0.052000000000000005
1680103379173366794,-0.044
1680103379181062834,-0.014
1680103379188758874,0.008
1680103379196454914,0.021
1680103379204150954,0.039
1680103379211846994,0.058
1680103379219543034,0.037
1680103379227239074,-0.052000000000000005
1680103379234935114,-0.14300000000000002
1680103379242631154,-0.14
1680103379250327194,-0.08600000000000001
1680103379258023234,-0.056
1680103379265719274,-0.039
1680103379273415314,-0.01
1680103379281111354,0.008
1680103379288807394,0.012
1680103379296503434,0.027
1680103379304199474,0.054
1680103379311895514,0.079
1680103379319591554,0.10300000000000001
1680103379327287594,0.075
1680103379334983634,-0.136
1680103379342679674,-0.601
1680103379350375714,-0.99
1680103379358071754,-0.6980000000000001
1680103379365767794,0.22
1680103379373463834,0.679
1680103379381159874,0.332
1680103379388855914,0.111
1680103379396551954,0.246
1680103379404248024,0.265,77
1680103379411944482,0.197
1680103379419640940,0.20600000000000002
1680103379427337398,0.218
1680103379435033856,0.218
1680103379442730314,0.231
1680103379450426772,0.246
1680103379458123230,0.256
1680103379465819688,0.23700000000000002
1680103379473516146,0.178
1680103379481212604,0.14300000000000002
1680103379488909062,0.153
1680103379496605520,0.151
1680103379504301978,0.124
1680103379511998436,0.124
1680103379519694894,0.14,,788
1680103379527391352,0.136
1680103379535087810,0.122
1680103379542784268,0.134
1680103379550480726,0.151
1680103379558177184,0.14
1680103379565873642,0.124
1680103379573570100,0.134
1680103379581266558,0.145
1680103379588963016,0.147
1680103379596659474,0.151
1680103379604355932,0.155
1680103379612052390,0.164
1680103379619748848,0.191
1680103379627445306,0.21
1680103379635141764,0.214
1680103379642838222,0.227
1680103379650534680,0.23700000000000002
1680103379658231138,0.25
1680103379665927596,0.28800000000000003
1680103379673624054,0.323
1680103379681320512,0.334
1680103379689016970,0.334
1680103379696713428,0.34500000000000003
1680103379704409886,0.359
1680103379712106344,0.361
1680103379719802802,0.332
1680103379727499260,0.262
1680103379735195718,0.164
1680103379742892176,0.092
1680103379750588634,0.082
1680103379758285092,0.08600000000000001
1680103379765981550,0.061
1680103379773678008,0.018000000000000002
1680103379781374466,-0.016
1680103379789070924,-0.052000000000000005
1680103379796767382,-0.092
1680103379804463840,-0.113
1680103379812160298,-0.109
1680103379819856756,-0.107
1680103379827553214,-0.122
1680103379835249672,-0.138
1680103379842946130,-0.128
1680103379850642588,-0.113
1680103379858339046,-0.111
1680103379866035504,-0.117
1680103379873731962,-0.132
1680103379881428420,-0.145
1680103379889124878,-0.157
1680103379896821336,-0.178
1680103379904517794,-0.17200000000000001
1680103379912214252,-0.134
1680103379919910710,-0.13
1680103379927607168,-0.136
1680103379935303626,-0.107
1680103379943000084,-0.077
1680103379950696542,-0.067
1680103379958393000,-0.039
1680103379966089490,-0.004
1680103379973785530,-0.01
1680103379981481570,-0.044
1680103379989177610,-0.044
1680103379996873650,0.004
1680103380004569690,0.046
1680103380012265730,0.054
1680103380019961770,0.061
1680103380027657810,0.077
1680103380035353850,0.067
1680103380043049890,0.01
1680103380050745930,-0.037
1680103380058441970,-0.037
1680103380066138010,-0.025
1680103380073834050,0.008
1680103380081530090,0.056
1680103380089226130,0.058
1680103380096922170,0.039
1680103380104618210,0.061
1680103380112314250,0.067
1680103380120010290,0.027
1680103380127706330,0.002
1680103380135402370,0.029
1680103380143098410,0.082
1680103380150794450,0.018000000000000002
1680103380158490490,-0.359
1680103380166186530,-0.902
1680103380173882570,-1.045
1680103380181578610,-0.41200000000000003
1680103380189274650,0.41600000000000004
1680103380196970690,0.494
1680103380204666730,0.151
1680103380212362770,0.153
1680103380220058810,0.269
1680103380227754850,0.21
1680103380235450890,0.155
1680103380243146930,0.13
1680103380250842970,0.061
1680103380258539010,0.031
1680103380266235050,0.07100000000000001
1680103380273931090,0.098
1680103380281627130,0.092
1680103380289323170,0.098
1680103380297019210,0.111
1680103380304715250,0.109
1680103380312411290,0.109,,792
1680103380320107330,0.13
1680103380327803370,0.161
1680103380335499410,0.17
1680103380343195450,0.128
1680103380350891490,0.1
1680103380358587530,0.117
1680103380366283570,0.094
1680103380373979610,0.042
1680103380381675650,0.039
1680103380389371690,0.05
1680103380397067730,0.037
1680103380404763770,0.035
1680103380412459810,0.061
1680103380420155850,0.09
1680103380427851890,0.10300000000000001
1680103380435547930,0.096
1680103380443243970,0.111
1680103380450940010,0.153
1680103380458636050,0.178
1680103380466332090,0.201
1680103380474028130,0.25
1680103380481724170,0.28600000000000003
1680103380489420210,0.298
1680103380497116250,0.321
1680103380504812290,0.342
1680103380512508330,0.332
1680103380520204370,0.298
1680103380527900438,0.26,77
1680103380535596478,0.248
1680103380543292518,0.256
1680103380550988558,0.248
1680103380558684598,0.216
1680103380566380638,0.178
1680103380574076678,0.128
1680103380581772718,0.039
1680103380589468758,-0.029
1680103380597164798,-0.031
1680103380604860838,-0.027
1680103380612556878,-0.063
1680103380620252918,-0.10300000000000001
1680103380627948958,-0.124
1680103380635644998,-0.14
1680103380643341038,-0.14
1680103380651037078,-0.124
1680103380658733118,-0.111
1680103380666429158,-0.111
1680103380674125198,-0.113
1680103380681821238,-0.092
1680103380689517278,-0.058
1680103380697213318,-0.037
1680103380704909358,-0.027
1680103380712605398,-0.033
1680103380720301438,-0.048
1680103380727997478,-0.044
1680103380735693518,-0.05
1680103380743389558,-0.096
1680103380751085598,-0.128
1680103380758781638,-0.124
1680103380766477678,-0.122
1680103380774173718,-0.10300000000000001
1680103380781869758,-0.079
1680103380789565798,-0.096
1680103380797261838,-0.117
1680103380804957878,-0.10300000000000001
1680103380812653918,-0.077
1680103380820349958,-0.058
1680103380828045998,-0.035
1680103380835742038,-0.004
1680103380843438078,0.031
1680103380851134118,0.05
1680103380858830158,0.023
1680103380866526198,-0.012
1680103380874222238,-0.025
1680103380881918278,-0.037
1680103380889614318,-0.048
1680103380897310358,-0.014
1680103380905006398,0.046
1680103380912702438,0.073
1680103380920398478,0.077
1680103380928094518,0.10300000000000001
1680103380935790558,0.124
1680103380943486598,0.122
1680103380951182638,0.122
1680103380958878678,0.14
1680103380966574718,0.178
1680103380974270758,0.197
1680103380981966798,0.039
1680103380989662838,-0.399
1680103380997358878,-0.862
1680103381005054918,-0.778
1680103381012750958,0.033
1680103381020446998,0.715
1680103381028143038,0.542
1680103381035839078,0.212
1680103381043535118,0.294
1680103381051231158,0.378
1680103381058927198,0.323
1680103381066623238,0.336
1680103381074319278,0.378
1680103381082015318,0.355
1680103381089711386,0.315
1680103381097407426,0.298
1680103381105103466,0.281,,790
1680103381112799506,0.258
1680103381120495546,0.23900000000000002
1680103381128191586,0.218
1680103381135887626,0.21
1680103381143583666,0.216
1680103381151279706,0.185
1680103381158975746,0.124
1680103381166671786,0.09
1680103381174367826,0.077
1680103381182063866,0.058
1680103381189759906,0.058
1680103381197455946,0.082
1680103381205151986,0.088
1680103381212848026,0.067
1680103381220544066,0.054
1680103381228240106,0.065
1680103381235936146,0.08600000000000001
1680103381243632186,0.082
1680103381251328226,0.027
1680103381259024266,-0.035
1680103381266720306,-0.07100000000000001
1680103381274416346,-0.069
1680103381282112386,-0.027
1680103381289808426,0.031
1680103381297504466,0.07100000000000001
1680103381305200506,0.077
1680103381312896546,0.075
1680103381320592586,0.088
1680103381328288626,0.109
1680103381335984666,0.117
1680103381343680706,0.109
1680103381351376746,0.052000000000000005
1680103381359072786,-0.035
1680103381366768826,-0.084
1680103381374464866,-0.098
1680103381382160906,-0.113
1680103381389856946,-0.126
1680103381397552986,-0.134
1680103381405249026,-0.147
1680103381412945066,-0.145
1680103381420641106,-0.132
1680103381428337146,-0.132
1680103381436033186,-0.134
1680103381443729226,-0.128
1680103381451425266,-0.126
1680103381459121306,-0.124
1680103381466817346,-0.10300000000000001
1680103381474513386,-0.084
1680103381482209426,-0.07100000000000001
1680103381489905466,-0.056
1680103381497601506,-0.046
1680103381505297546,-0.035
1680103381512993586,-0.006
1680103381520689626,0.012
1680103381528385666,0.01
1680103381536081706,0.023
1680103381543777746,0.029
1680103381551473786,0.025
1680103381559169826,0.048
1680103381566865866,0.073
1680103381574561906,0.079
1680103381582257946,0.098
1680103381589953986,0.107
1680103381597650026,0.067
1680103381605346066,0.035
1680103381613042106,0.056
1680103381620738146,0.079
1680103381628434186,0.065
1680103381636130226,0.058
1680103381643826266,0.082
1680103381651522334,0.113,77
1680103381659218792,0.128
1680103381666915250,0.122
1680103381674611708,0.113
1680103381682308166,0.098
1680103381690004624,0.048
1680103381697701082,0.018000000000000002
1680103381705397540,0.056
1680103381713093998,0.088
1680103381720790456,0.075
1680103381728486914,0.061
1680103381736183372,0.079
1680103381743879830,0.109
1680103381751576288,0.094
1680103381759272746,0.039
1680103381766969204,0.027
1680103381774665662,0.039
1680103381782362120,-0.10300000000000001
1680103381790058578,-0.513
1680103381797755036,-0.967
1680103381805451494,-0.9420000000000001
1680103381813147952,-0.195
1680103381820844410,0.519
1680103381828540868,0.422
1680103381836237326,0.096
1680103381843933784,0.105
1680103381851630242,0.14
1680103381859326700,0.105
1680103381867023158,0.11900000000000001
1680103381874719616,0.126
1680103381882416074,0.107
1680103381890112532,0.11900000000000001
1680103381897808990,0.145
1680103381905505448,0.14,,804
1680103381913201906,0.134
1680103381920898364,0.153
1680103381928594822,0.17
1680103381936291280,0.178
1680103381943987738,0.183
1680103381951684196,0.18
1680103381959380654,0.155
1680103381967077112,0.14
1680103381974773570,0.161
1680103381982470028,0.185
1680103381990166486,0.183
1680103381997862944,0.17400000000000002
1680103382005559402,0.17200000000000001
1680103382013255860,0.168
1680103382020952318,0.161
1680103382028648776,0.164
1680103382036345234,0.176
1680103382044041692,0.18
1680103382051738150,0.168
1680103382059434608,0.17400000000000002
1680103382067131066,0.20600000000000002
1680103382074827524,0.244
1680103382082523982,0.275
1680103382090220440,0.28800000000000003
1680103382097916898,0.29
1680103382105613356,0.302
1680103382113309814,0.28800000000000003
1680103382121006272,0.256
1680103382128702730,0.26
1680103382136399188,0.275
1680103382144095646,0.25
1680103382151792104,0.212
1680103382159488562,0.193
1680103382167185020,0.168
1680103382174881478,0.122
1680103382182577936,0.079
1680103382190274394,0.052000000000000005
1680103382197970852,0.012
1680103382205667310,-0.016
1680103382213363798,-0.006,77
1680103382221059838,0.01
1680103382228755878,-0.004
1680103382236451918,-0.035
1680103382244147958,-0.035
1680103382251843998,-0.025
1680103382259540038,-0.075
1680103382267236078,-0.138
1680103382274932118,-0.13
1680103382282628158,-0.117
1680103382290324198,-0.166
1680103382298020238,-0.222
1680103382305716278,-0.218
1680103382313412318,-0.183
1680103382321108358,-0.18
1680103382328804398,-0.20400000000000001
1680103382336500438,-0.22
1680103382344196478,-0.225
1680103382351892518,-0.216
1680103382359588558,-0.195
1680103382367284598,-0.18
1680103382374980638,-0.185
1680103382382676678,-0.18
1680103382390372718,-0.157
1680103382398068758,-0.11900000000000001
1680103382405764798,-0.08600000000000001
1680103382413460838,-0.082
1680103382421156878,-0.082
1680103382428852918,-0.054
1680103382436548958,-0.027
1680103382444244998,-0.021
1680103382451941038,0.002
1680103382459637078,0.048
1680103382467333118,0.067
1680103382475029158,0.056
1680103382482725198,0.061
1680103382490421238,0.079
1680103382498117278,0.065
1680103382505813318,0.044
1680103382513509358,0.079
1680103382521205398,0.134
1680103382528901438,0.145
1680103382536597478,0.145
1680103382544293518,0.189
1680103382551989558,0.216
1680103382559685598,0.195
1680103382567381638,0.187
1680103382575077678,0.20600000000000002
1680103382582773718,0.20400000000000001
1680103382590469758,0.17200000000000001
1680103382598165798,0.008
1680103382605861838,-0.445
1680103382613557878,-0.934
1680103382621253918,-0.839
1680103382628949958,-0.018000000000000002
1680103382636645998,0.624
1680103382644342038,0.443
1680103382652038078,0.166
1680103382659734118,0.262
1680103382667430158,0.323
1680103382675126198,0.275
1680103382682822238,0.305
1680103382690518278,0.334
1680103382698214318,0.296,,795
1680103382705910358,0.273
1680103382713606398,0.28300000000000003
1680103382721302438,0.292
1680103382728998478,0.305
1680103382736694518,0.319
1680103382744390558,0.302
1680103382752086598,0.275
1680103382759782638,0.23500000000000001
1680103382767478678,0.164
1680103382775174750,0.122
1680103382782870790,0.11900000000000001
1680103382790566830,0.1
1680103382798262870,0.073
1680103382805958910,0.069
1680103382813654950,0.084
1680103382821350990,0.08600000000000001
1680103382829047030,0.05
1680103382836743070,0.0
1680103382844439110,-0.01
1680103382852135150,0.008
1680103382859831190,-0.027
1680103382867527230,-0.092
1680103382875223270,-0.08600000000000001
1680103382882919310,-0.054
1680103382890615350,-0.061
1680103382898311390,-0.048
1680103382906007430,-0.006
1680103382913703470,0.012
1680103382921399510,0.014
1680103382929095550,0.025
1680103382936791590,0.044
1680103382944487630,0.048
1680103382952183670,0.021
1680103382959879710,-0.004
1680103382967575750,-0.023
1680103382975271790,-0.067
1680103382982967830,-0.10300000000000001
1680103382990663870,-0.098
1680103382998359910,-0.088
1680103383006055950,-0.094
1680103383013751990,-0.107
1680103383021448030,-0.107
1680103383029144070,-0.098
1680103383036840110,-0.1
1680103383044536150,-0.10300000000000001
1680103383052232190,-0.08600000000000001
1680103383059928230,-0.063
1680103383067624270,-0.069
1680103383075320310,-0.10300000000000001
1680103383083016350,-0.117
1680103383090712390,-0.092
1680103383098408430,-0.069
1680103383106104470,-0.07100000000000001
1680103383113800510,-0.077
1680103383121496550,-0.065
1680103383129192590,-0.044
1680103383136888630,-0.027
1680103383144584670,0.0
1680103383152280710,0.027
1680103383159976750,0.029
1680103383167672790,0.033
1680103383175368830,0.054
1680103383183064870,0.069
1680103383190760910,0.073
1680103383198456950,0.082
1680103383206152990,0.092
1680103383213849030,0.109
1680103383221545070,0.124
1680103383229241110,0.136
1680103383236937150,0.164
1680103383244633190,0.187
1680103383252329230,0.176
1680103383260025270,0.122
1680103383267721310,0.056
1680103383275417350,0.042
1680103383283113390,0.054
1680103383290809430,0.052000000000000005
1680103383298505470,0.065
1680103383306201510,0.09
1680103383313897550,0.082
1680103383321593590,0.037
1680103383329289630,0.01
1680103383336985698,0.002,76
1680103383344681947,-0.029
1680103383352378196,-0.031
1680103383360074445,0.031
1680103383367770694,0.073
1680103383375466943,0.065
1680103383383163192,0.075
1680103383390859441,0.092
1680103383398555690,0.058
1680103383406251939,0.012
1680103383413948188,0.021
1680103383421644437,0.067
1680103383429340686,0.079
1680103383437036935,-0.054
1680103383444733184,-0.448
1680103383452429433,-0.931
1680103383460125682,-0.99
1680103383467821931,-0.296
1680103383475518180,0.481
1680103383483214429,0.456
1680103383490910678,0.115
1680103383498606927,0.168
1680103383506303176,0.28300000000000003
1680103383513999425,0.23700000000000002
1680103383521695674,0.222,,820
1680103383529391923,0.23900000000000002
1680103383537088172,0.233
1680103383544784421,0.23700000000000002
1680103383552480670,0.244
1680103383560176919,0.23500000000000001
1680103383567873168,0.21
1680103383575569417,0.17200000000000001
1680103383583265666,0.151
1680103383590961915,0.164
1680103383598658164,0.178
1680103383606354413,0.164
1680103383614050662,0.147
1680103383621746911,0.151
1680103383629443160,0.159
1680103383637139409,0.153
1680103383644835658,0.149
1680103383652531907,0.161
1680103383660228156,0.17400000000000002
1680103383667924405,0.166
1680103383675620654,0.145
1680103383683316903,0.14300000000000002
1680103383691013152,0.151
1680103383698709401,0.157
1680103383706405650,0.161
1680103383714101899,0.17200000000000001
1680103383721798148,0.185
1680103383729494397,0.176
1680103383737190646,0.164
1680103383744886895,0.191
1680103383752583144,0.231
1680103383760279393,0.21
1680103383767975642,0.122
1680103383775671891,0.065
1680103383783368140,0.058
1680103383791064389,0.021
1680103383798760638,-0.031
1680103383806456887,-0.056
1680103383814153136,-0.096
1680103383821849385,-0.147
1680103383829545634,-0.153
1680103383837241883,-0.138
1680103383844938132,-0.149
1680103383852634381,-0.178
1680103383860330630,-0.187
1680103383868026879,-0.159
1680103383875723128,-0.145
1680103383883419377,-0.147
1680103383891115626,-0.134
1680103383898811904,-0.11900000000000001
1680103383906507735,-0.11900000000000001
1680103383914203566,-0.109
1680103383921899397,-0.082
1680103383929595228,-0.056
1680103383937291059,-0.052000000000000005
1680103383944986890,-0.065
1680103383952682721,-0.061
1680103383960378552,-0.033
1680103383968074383,-0.039
1680103383975770214,-0.08600000000000001
1680103383983466045,-0.088
1680103383991161876,-0.061
1680103383998857707,-0.061
1680103384006553538,-0.063
1680103384014249369,-0.031
1680103384021945200,-0.002
1680103384029641031,-0.008
1680103384037336862,-0.027
1680103384045032693,-0.01
1680103384052728524,0.018000000000000002
1680103384060424355,0.012
1680103384068120186,0.006
1680103384075816017,0.029
1680103384083511848,0.046
1680103384091207679,0.042
1680103384098903510,0.046
1680103384106599341,0.063
1680103384114295172,0.075
1680103384121991003,0.088
1680103384129686834,0.098
1680103384137382665,0.107
1680103384145078496,0.128
1680103384152774327,0.149
1680103384160470158,0.17
1680103384168165989,0.195
1680103384175861820,0.20600000000000002
1680103384183557651,0.195
1680103384191253482,0.191
1680103384198949313,0.20600000000000002
1680103384206645144,0.20600000000000002
1680103384214340975,0.178
1680103384222036806,0.176
1680103384229732637,0.231
1680103384237428468,0.26
1680103384245124299,0.256
1680103384252820130,0.275
1680103384260515961,0.298
1680103384268211792,0.273
1680103384275907623,0.20800000000000002
1680103384283603454,0.183
1680103384291299285,0.21
1680103384298995116,0.17
1680103384306690947,-0.128
1680103384314386778,-0.662
1680103384322082609,-1.0030000000000001
1680103384329778440,-0.614
1680103384337474271,0.294
1680103384345170102,0.673
1680103384352865933,0.332,,829
1680103384360561764,0.149
1680103384368257595,0.244
1680103384375953426,0.241
1680103384383649257,0.222
1680103384391345088,0.26
1680103384399040919,0.271
1680103384406736750,0.248
1680103384414432581,0.252
1680103384422128412,0.279
1680103384429824243,0.28800000000000003
1680103384437520074,0.262
1680103384445215905,0.241
1680103384452911736,0.246
1680103384460607594,0.254,76
1680103384468304052,0.262
1680103384476000510,0.273
1680103384483696968,0.267
1680103384491393426,0.26
1680103384499089884,0.256
1680103384506786342,0.218
1680103384514482800,0.155
1680103384522179258,0.11900000000000001
1680103384529875716,0.128
1680103384537572174,0.115
1680103384545268632,0.063
1680103384552965090,0.006
1680103384560661548,-0.035
1680103384568358006,-0.063
1680103384576054464,-0.073
1680103384583750922,-0.077
1680103384591447380,-0.092
1680103384599143838,-0.126
1680103384606840296,-0.145
1680103384614536754,-0.13
1680103384622233212,-0.11900000000000001
1680103384629929670,-0.126
1680103384637626128,-0.11900000000000001
1680103384645322586,-0.096
1680103384653019044,-0.075
1680103384660715502,-0.075
1680103384668411960,-0.075
1680103384676108418,-0.052000000000000005
1680103384683804876,-0.052000000000000005
1680103384691501334,-0.084
1680103384699197792,-0.09
1680103384706894250,-0.061
1680103384714590708,-0.046
1680103384722287166,-0.058
1680103384729983624,-0.058
1680103384737680082,-0.039
1680103384745376540,-0.027
1680103384753072998,-0.031
1680103384760769456,-0.025
1680103384768465914,-0.031
1680103384776162372,-0.1
1680103384783858830,-0.164
1680103384791555288,-0.168
1680103384799251746,-0.187
1680103384806948204,-0.225
1680103384814644662,-0.229
1680103384822341120,-0.20800000000000002
1680103384830037578,-0.183
1680103384837734036,-0.166
1680103384845430494,-0.151
1680103384853126952,-0.117
1680103384860823410,-0.077
1680103384868519868,-0.073
1680103384876216326,-0.092
1680103384883912784,-0.084
1680103384891609242,-0.05
1680103384899305700,-0.025
1680103384907002158,-0.008
1680103384914698616,0.01
1680103384922395074,0.029
1680103384930091532,0.046
1680103384937787990,0.065
1680103384945484448,0.094
1680103384953180906,0.10300000000000001
1680103384960877364,0.092
1680103384968573822,0.098
1680103384976270280,0.124
1680103384983966738,0.149
1680103384991663196,0.164
1680103384999359654,0.17400000000000002
1680103385007056112,0.18
1680103385014752570,0.187
1680103385022449060,0.17400000000000002
1680103385030145100,0.155
1680103385037841140,0.17400000000000002
1680103385045537180,0.178
1680103385053233220,0.136
1680103385060929260,0.124
1680103385068625300,0.151
1680103385076321340,0.153
1680103385084017380,0.115
1680103385091713420,0.079
1680103385099409460,0.069
1680103385107105500,0.084
1680103385114801540,0.082
1680103385122497580,-0.054
1680103385130193620,-0.45
1680103385137889660,-0.915
1680103385145585700,-0.862
1680103385153281740,-0.046,,801
1680103385160977780,0.662
1680103385168673820,0.506
1680103385176369860,0.17
1680103385184065900,0.20800000000000002
1680103385191761940,0.258
1680103385199457980,0.212
1680103385207154020,0.229
1680103385214850060,0.269
1680103385222546100,0.277
1680103385230242140,0.277
1680103385237938180,0.244
1680103385245634220,0.21
1680103385253330260,0.231
1680103385261026300,0.248
1680103385268722340,0.231
1680103385276418380,0.197
1680103385284114420,0.122
1680103385291810460,0.042
1680103385299506500,0.023
1680103385307202540,0.039
1680103385314898580,0.046
1680103385322594620,0.027
1680103385330290660,-0.008
1680103385337986700,-0.021
1680103385345682740,-0.004
1680103385353378780,-0.014
1680103385361074820,-0.052000000000000005
1680103385368770860,-0.067
1680103385376466900,-0.075
1680103385384162940,-0.092
1680103385391858980,-0.092
1680103385399555020,-0.088
1680103385407251060,-0.115
1680103385414947100,-0.168
1680103385422643140,-0.189
1680103385430339180,-0.147
1680103385438035220,-0.105
1680103385445731260,-0.094
1680103385453427300,-0.056
1680103385461123340,-0.01
1680103385468819380,-0.023
1680103385476515420,-0.046
1680103385484211460,-0.016
1680103385491907500,0.016
1680103385499603540,0.008
1680103385507299580,-0.014
1680103385514995620,-0.008
1680103385522691660,0.012
1680103385530387700,0.004
1680103385538083740,-0.018000000000000002
1680103385545779780,-0.025
1680103385553475820,-0.012
1680103385561171860,-0.018000000000000002
1680103385568867900,-0.029
1680103385576563940,-0.008
1680103385584260008,0.012,76
1680103385591956048,0.006
1680103385599652088,0.004
1680103385607348128,0.018000000000000002
1680103385615044168,0.012
1680103385622740208,-0.025
1680103385630436248,-0.046
1680103385638132288,-0.021
1680103385645828328,0.0
1680103385653524368,-0.006
1680103385661220408,0.002
1680103385668916448,0.016
1680103385676612488,0.018000000000000002
1680103385684308528,0.029
1680103385692004568,0.054
1680103385699700608,0.073
1680103385707396648,0.079
1680103385715092688,0.09
1680103385722788728,0.117
1680103385730484768,0.151
1680103385738180808,0.164
1680103385745876848,0.14300000000000002
1680103385753572888,0.136
1680103385761268928,0.157
1680103385768964968,0.17200000000000001
1680103385776661008,0.159
1680103385784357048,0.096
1680103385792053088,0.006
1680103385799749128,-0.039
1680103385807445168,-0.029
1680103385815141208,-0.014
1680103385822837248,0.004
1680103385830533288,0.014
1680103385838229328,0.018000000000000002
1680103385845925368,0.039
1680103385853621408,0.042
1680103385861317448,0.012
1680103385869013488,0.01
1680103385876709528,0.029
1680103385884405568,0.033
1680103385892101608,0.056
1680103385899797648,0.109
1680103385907493688,0.14300000000000002
1680103385915189728,0.155
1680103385922885768,0.151
1680103385930581808,0.14300000000000002
1680103385938277848,0.157
1680103385945973888,0.187
1680103385953669928,0.201
1680103385961365968,0.233
1680103385969062008,0.178,,815
1680103385976758048,-0.183
1680103385984454088,-0.727
1680103385992150128,-0.891
1680103385999846168,-0.277
1680103386007542208,0.5720000000000001
1680103386015238248,0.679
1680103386022934288,0.302
1680103386030630328,0.231
1680103386038326368,0.3
1680103386046022408,0.244
1680103386053718448,0.231
1680103386061414488,0.277
1680103386069110528,0.262
1680103386076806568,0.23500000000000001
1680103386084502608,0.254
1680103386092198648,0.273
1680103386099894688,0.271
1680103386107590728,0.273
1680103386115286768,0.267
1680103386122982808,0.248
1680103386130678848,0.246
1680103386138374888,0.248
1680103386146070958,0.246
1680103386153766998,0.258
1680103386161463038,0.256
1680103386169159078,0.222
1680103386176855118,0.191
1680103386184551158,0.178
1680103386192247198,0.159
1680103386199943238,0.128
1680103386207639278,0.092
1680103386215335318,0.027
1680103386223031358,-0.069
1680103386230727398,-0.13
1680103386238423438,-0.149
1680103386246119478,-0.176
1680103386253815518,-0.201
1680103386261511558,-0.195
1680103386269207598,-0.185
1680103386276903638,-0.20800000000000002
1680103386284599678,-0.222
1680103386292295718,-0.22
1680103386299991758,-0.26
1680103386307687798,-0.3
1680103386315383838,-0.279
1680103386323079878,-0.244
1680103386330775918,-0.222
1680103386338471958,-0.225
1680103386346167998,-0.23900000000000002
1680103386353864038,-0.225
1680103386361560078,-0.197
1680103386369256118,-0.191
1680103386376952158,-0.176
1680103386384648198,-0.153
1680103386392344238,-0.147
1680103386400040278,-0.147
1680103386407736318,-0.128
1680103386415432358,-0.096
1680103386423128398,-0.067
1680103386430824438,-0.063
1680103386438520478,-0.082
1680103386446216518,-0.07100000000000001
1680103386453912558,-0.027
1680103386461608598,-0.006
1680103386469304638,0.002
1680103386477000678,0.033
1680103386484696718,0.052000000000000005
1680103386492392758,0.044
1680103386500088798,0.058
1680103386507784838,0.1
1680103386515480878,0.11900000000000001
1680103386523176918,0.098
1680103386530872958,0.082
1680103386538568998,0.098
1680103386546265038,0.111
1680103386553961078,0.1
1680103386561657118,0.111
1680103386569353158,0.145
1680103386577049198,0.149
1680103386584745238,0.138
1680103386592441278,0.166
1680103386600137318,0.201
1680103386607833358,0.212
1680103386615529398,0.216
1680103386623225438,0.227
1680103386630921478,0.23500000000000001
1680103386638617518,0.23700000000000002
1680103386646313558,0.23700000000000002
1680103386654009598,0.248
1680103386661705638,0.262
1680103386669401678,0.265
1680103386677097718,0.258
1680103386684793758,0.277
1680103386692489798,0.307
1680103386700185838,0.315
1680103386707881906,0.326,75
1680103386715578364,0.34700000000000003
1680103386723274822,0.34500000000000003
1680103386730971280,0.313
1680103386738667738,0.302
1680103386746364196,0.311
1680103386754060654,0.3
1680103386761757112,0.277
1680103386769453570,0.26
1680103386777150028,0.273
1680103386784846486,0.298
1680103386792542944,0.296
1680103386800239402,0.233
1680103386807935860,0.159,,841
1680103386815632318,0.124
1680103386823328776,0.073
1680103386831025234,0.025
1680103386838721692,0.061
1680103386846418150,0.084
1680103386854114608,-0.128
1680103386861811066,-0.616
1680103386869507524,-1.041
1680103386877203982,-0.906
1680103386884900440,-0.126
1680103386892596898,0.485
1680103386900293356,0.315
1680103386907989814,0.054
1680103386915686272,0.17
1680103386923382730,0.241
1680103386931079188,0.189
1680103386938775646,0.193
1680103386946472104,0.191
1680103386954168562,0.17200000000000001
1680103386961865020,0.20600000000000002
1680103386969561478,0.225
1680103386977257936,0.20400000000000001
1680103386984954394,0.214
1680103386992650852,0.23500000000000001
1680103387000347310,0.218
1680103387008043768,0.18
1680103387015740226,0.14
1680103387023436684,0.096
1680103387031133142,0.063
1680103387038829600,0.044
1680103387046526058,0.025
1680103387054222516,-0.002
1680103387061918974,-0.044
1680103387069615432,-0.079
1680103387077311890,-0.124
1680103387085008348,-0.18
1680103387092704806,-0.21
1680103387100401264,-0.21
1680103387108097722,-0.20600000000000002
1680103387115794180,-0.199
1680103387123490638,-0.199
1680103387131187096,-0.20800000000000002
1680103387138883554,-0.191
1680103387146580012,-0.161
1680103387154276470,-0.147
1680103387161972928,-0.124
1680103387169669386,-0.073
1680103387177365844,-0.046
1680103387185062302,-0.039
1680103387192758760,-0.004
1680103387200455218,0.046
1680103387208151676,0.069
1680103387215848134,0.061
1680103387223544592,0.05
1680103387231241050,0.056
1680103387238937508,0.065
1680103387246633966,0.069
1680103387254330424,0.07100000000000001
1680103387262026882,0.048
1680103387269723372,0.002,75
1680103387277419412,-0.01
1680103387285115452,0.023
1680103387292811492,0.046
1680103387300507532,0.014
1680103387308203572,-0.054
1680103387315899612,-0.094
1680103387323595652,-0.088
1680103387331291692,-0.11900000000000001
1680103387338987732,-0.164
1680103387346683772,-0.138
1680103387354379812,-0.109
1680103387362075852,-0.126
1680103387369771892,-0.11900000000000001
1680103387377467932,-0.08600000000000001
1680103387385163972,-0.065
1680103387392860012,-0.05
1680103387400556052,-0.031
1680103387408252092,-0.021
1680103387415948132,-0.014
1680103387423644172,0.004
1680103387431340212,0.035
1680103387439036252,0.065
1680103387446732292,0.084
1680103387454428332,0.084
1680103387462124372,0.088
1680103387469820412,0.115
1680103387477516452,0.134
1680103387485212492,0.136
1680103387492908532,0.147
1680103387500604572,0.161
1680103387508300612,0.128
1680103387515996652,0.082
1680103387523692692,0.107
1680103387531388732,0.155
1680103387539084772,0.14300000000000002
1680103387546780812,0.105
1680103387554476852,0.113
1680103387562172892,0.153
1680103387569868932,0.166
1680103387577564972,0.17
1680103387585261012,0.183
1680103387592957052,0.191
1680103387600653092,0.191
1680103387608349132,0.201
1680103387616045172,0.227
1680103387623741212,0.258
1680103387631437252,0.271
1680103387639133292,0.256
1680103387646829332,0.241
1680103387654525372,0.246
1680103387662221412,0.248
1680103387669917452,0.23700000000000002,,865
1680103387677613492,0.241
1680103387685309532,0.262
1680103387693005572,0.28600000000000003
1680103387700701612,0.3
1680103387708397652,0.317
1680103387716093692,0.332
1680103387723789732,0.336
1680103387731485772,0.328
1680103387739181812,0.313
1680103387746877852,0.317
1680103387754573892,0.336
1680103387762269932,0.28800000000000003
1680103387769965972,0.01
1680103387777662012,-0.519
1680103387785358052,-0.883
1680103387793054092,-0.509
1680103387800750132,0.406
1680103387808446172,0.784
1680103387816142212,0.403
1680103387823838252,0.151
1680103387831534320,0.216
1680103387839230778,0.20600000000000002
1680103387846927236,0.157
1680103387854623694,0.199
1680103387862320152,0.20600000000000002
1680103387870016610,0.105
1680103387877713068,-0.021
1680103387885409526,-0.088
1680103387893105984,-0.094
1680103387900802442,-0.111
1680103387908498900,-0.157
1680103387916195358,-0.191
1680103387923891816,-0.20800000000000002
1680103387931588274,-0.23700000000000002
1680103387939284732,-0.273
1680103387946981190,-0.296
1680103387954677648,-0.311
1680103387962374106,-0.338
1680103387970070564,-0.34700000000000003
1680103387977767022,-0.323
1680103387985463480,-0.317
1680103387993159938,-0.34900000000000003
1680103388000856396,-0.376
1680103388008552854,-0.393
1680103388016249312,-0.427
1680103388023945770,-0.445
1680103388031642228,-0.403
1680103388039338686,-0.34900000000000003
1680103388047035144,-0.34
1680103388054731602,-0.34700000000000003
1680103388062428060,-0.315
1680103388070124518,-0.25
1680103388077820976,-0.20400000000000001
1680103388085517434,-0.17200000000000001
1680103388093213892,-0.124
1680103388100910350,-0.073
1680103388108606808,-0.044
1680103388116303266,-0.021
1680103388123999724,0.021
1680103388131696182,0.063
1680103388139392640,0.075
1680103388147089098,0.067
1680103388154785556,0.063
1680103388162482014,0.082
1680103388170178472,0.098
1680103388177874930,0.098
1680103388185571388,0.111
1680103388193267846,0.132
1680103388200964304,0.136
1680103388208660762,0.14
1680103388216357220,0.164
1680103388224053678,0.185
1680103388231750136,0.176
1680103388239446594,0.149
1680103388247143052,0.13
1680103388254839510,0.113
1680103388262535968,0.098
1680103388270232426,0.113
1680103388277928884,0.153
1680103388285625342,0.157
1680103388293321800,0.134
1680103388301018258,0.149
1680103388308714716,0.183
1680103388316411174,0.153
1680103388324107632,0.088
1680103388331804090,0.069
1680103388339500548,0.094
1680103388347197006,0.111
1680103388354893464,0.111
1680103388362589922,0.124
1680103388370286380,0.14300000000000002
1680103388377982838,0.14300000000000002
1680103388385679296,0.122
1680103388393375786,0.126,74
1680103388401071826,0.17
1680103388408767866,0.193
1680103388416463906,0.185
1680103388424159946,0.187
1680103388431855986,0.197
1680103388439552026,0.17400000000000002
1680103388447248066,0.126
1680103388454944106,0.11900000000000001
1680103388462640146,0.145
1680103388470336186,0.14300000000000002
1680103388478032226,0.126
1680103388485728266,0.122
1680103388493424306,0.113,,819
1680103388501120346,0.08600000000000001
1680103388508816386,0.065
1680103388516512426,0.052000000000000005
1680103388524208466,0.033
1680103388531904506,0.035
1680103388539600546,0.075
1680103388547296586,0.13
1680103388554992626,0.149
1680103388562688666,0.126
1680103388570384706,0.126
1680103388578080746,0.161
1680103388585776786,0.185
1680103388593472826,0.189
1680103388601168866,0.20400000000000001
1680103388608864906,0.231
1680103388616560946,0.218
1680103388624256986,0.0
1680103388631953026,-0.47900000000000004
1680103388639649066,-0.868
1680103388647345106,-0.614
1680103388655041146,0.248
1680103388662737186,0.738
1680103388670433226,0.46900000000000003
1680103388678129266,0.252
1680103388685825306,0.34700000000000003
1680103388693521346,0.359
1680103388701217386,0.29
1680103388708913426,0.273
1680103388716609466,0.269
1680103388724305506,0.26
1680103388732001546,0.252
1680103388739697586,0.201
1680103388747393626,0.126
1680103388755089666,0.092
1680103388762785706,0.063
1680103388770481746,0.01
1680103388778177786,-0.021
1680103388785873826,-0.037
1680103388793569866,-0.067
1680103388801265906,-0.094
1680103388808961946,-0.107
1680103388816657986,-0.124
1680103388824354026,-0.193
1680103388832050066,-0.271
1680103388839746106,-0.28800000000000003
1680103388847442146,-0.275
1680103388855138186,-0.28300000000000003
1680103388862834226,-0.305
1680103388870530266,-0.309
1680103388878226306,-0.3
1680103388885922346,-0.298
1680103388893618386,-0.29
1680103388901314426,-0.256
1680103388909010466,-0.21
1680103388916706506,-0.17400000000000002
1680103388924402546,-0.149
1680103388932098586,-0.113
1680103388939794626,-0.054
1680103388947490666,0.0
1680103388955186734,0.027
1680103388962882774,0.044
1680103388970578814,0.065
1680103388978274854,0.073
1680103388985970894,0.056
1680103388993666934,0.044
1680103389001362974,0.058
1680103389009059014,0.042
1680103389016755054,-0.01
1680103389024451094,-0.025
1680103389032147134,-0.006
1680103389039843174,-0.008
1680103389047539214,-0.01
1680103389055235254,0.004
1680103389062931294,0.01
1680103389070627334,0.002
1680103389078323374,0.01
1680103389086019414,0.042
1680103389093715454,0.07100000000000001
1680103389101411494,0.082
1680103389109107534,0.094
1680103389116803574,0.109
1680103389124499614,0.107
1680103389132195654,0.107
1680103389139891694,0.124
1680103389147587734,0.155
1680103389155283774,0.178
1680103389162979814,0.176
1680103389170675854,0.18
1680103389178371894,0.214
1680103389186067934,0.23700000000000002
1680103389193763974,0.241
1680103389201460014,0.258
1680103389209156054,0.271
1680103389216852094,0.265
1680103389224548134,0.244
1680103389232244174,0.20600000000000002
1680103389239940214,0.189
1680103389247636254,0.197
1680103389255332294,0.191
1680103389263028334,0.187
1680103389270724374,0.212
1680103389278420414,0.229
1680103389286116454,0.227
1680103389293812494,0.233
1680103389301508534,0.244
1680103389309204574,0.23500000000000001
1680103389316900614,0.22
1680103389324596654,0.193
1680103389332292694,0.14300000000000002
1680103389339988734,0.109,,849
1680103389347684774,0.1
1680103389355380814,0.113
1680103389363076854,0.136
1680103389370772894,0.14
1680103389378468934,0.13
1680103389386164974,0.126
1680103389393861014,0.111
1680103389401557054,0.08600000000000001
1680103389409253094,0.105
1680103389416949134,0.166
1680103389424645174,0.197
1680103389432341214,0.189
1680103389440037254,0.187
1680103389447733294,0.20400000000000001
1680103389455429334,0.22
1680103389463125374,0.233
1680103389470821414,0.23500000000000001
1680103389478517454,0.22
1680103389486213494,0.14300000000000002
1680103389493909534,-0.117
1680103389501605574,-0.595
1680103389509301614,-0.9590000000000001
1680103389516997684,-0.681,74
1680103389524693724,0.166
1680103389532389764,0.614
1680103389540085804,0.332
1680103389547781844,0.134
1680103389555477884,0.23700000000000002
1680103389563173924,0.233
1680103389570869964,0.161
1680103389578566004,0.13
1680103389586262044,0.048
1680103389593958084,-0.027
1680103389601654124,-0.035
1680103389609350164,-0.063
1680103389617046204,-0.124
1680103389624742244,-0.147
1680103389632438284,-0.145
1680103389640134324,-0.155
1680103389647830364,-0.159
1680103389655526404,-0.147
1680103389663222444,-0.155
1680103389670918484,-0.185
1680103389678614524,-0.189
1680103389686310564,-0.17200000000000001
1680103389694006604,-0.17200000000000001
1680103389701702644,-0.178
1680103389709398684,-0.176
1680103389717094724,-0.191
1680103389724790764,-0.241
1680103389732486804,-0.279
1680103389740182844,-0.267
1680103389747878884,-0.23500000000000001
1680103389755574924,-0.233
1680103389763270964,-0.252
1680103389770967004,-0.23500000000000001
1680103389778663044,-0.189
1680103389786359084,-0.17
1680103389794055124,-0.155
1680103389801751164,-0.10300000000000001
1680103389809447204,-0.042
1680103389817143244,-0.004
1680103389824839284,0.004
1680103389832535324,-0.023
1680103389840231364,-0.023
1680103389847927404,-0.006
1680103389855623444,-0.035
1680103389863319484,-0.05
1680103389871015524,-0.008
1680103389878711564,0.016
1680103389886407604,0.016
1680103389894103644,0.039
1680103389901799684,0.056
1680103389909495724,0.05
1680103389917191764,0.056
1680103389924887804,0.082
1680103389932583844,0.107
1680103389940279884,0.113
1680103389947975924,0.1
1680103389955671964,0.105
1680103389963368004,0.126
1680103389971064044,0.11900000000000001
1680103389978760084,0.1
1680103389986456124,0.113
1680103389994152164,0.128
1680103390001848204,0.122
1680103390009544244,0.134
1680103390017240284,0.178
1680103390024936324,0.20400000000000001
1680103390032632364,0.191
1680103390040328404,0.176
1680103390048024444,0.189
1680103390055720484,0.214
1680103390063416524,0.225
1680103390071112564,0.233
1680103390078808632,0.254
1680103390086504881,0.262
1680103390094201130,0.258
1680103390101897379,0.269
1680103390109593628,0.298
1680103390117289877,0.315
1680103390124986126,0.302
1680103390132682375,0.28800000000000003
1680103390140378624,0.294
1680103390148074873,0.279
1680103390155771122,0.22
1680103390163467371,0.20400000000000001
1680103390171163620,0.225
1680103390178859869,0.212
1680103390186556118,0.191
1680103390194252367,0.20800000000000002
1680103390201948616,0.23500000000000001
1680103390209644865,0.246
1680103390217341114,0.233
1680103390225037363,0.197,,882
1680103390232733612,0.185
1680103390240429861,0.185
1680103390248126110,0.17
1680103390255822359,0.159
1680103390263518608,0.161
1680103390271214857,0.166
1680103390278911106,0.189
1680103390286607355,0.229
1680103390294303604,0.252
1680103390301999853,0.256
1680103390309696102,0.256
1680103390317392351,0.252
1680103390325088600,0.227
1680103390332784849,0.17400000000000002
1680103390340481098,0.157
1680103390348177347,0.153
1680103390355873596,-0.054
1680103390363569845,-0.561
1680103390371266094,-0.967
1680103390378962343,-0.679
1680103390386658592,0.214
1680103390394354841,0.7000000000000001
1680103390402051090,0.41600000000000004
1680103390409747339,0.195
1680103390417443588,0.275
1680103390425139837,0.254
1680103390432836086,0.18
1680103390440532335,0.195
1680103390448228584,0.195
1680103390455924833,0.136
1680103390463621082,0.079
1680103390471317331,0.031
1680103390479013580,-0.014
1680103390486709829,-0.058
1680103390494406078,-0.105
1680103390502102327,-0.138
1680103390509798576,-0.161
1680103390517494825,-0.176
1680103390525191074,-0.18
1680103390532887323,-0.176
1680103390540583572,-0.191
1680103390548279821,-0.218
1680103390555976070,-0.22
1680103390563672319,-0.201
1680103390571368568,-0.201
1680103390579064817,-0.214
1680103390586761066,-0.22
1680103390594457315,-0.222
1680103390602153564,-0.225
1680103390609849813,-0.218
1680103390617546062,-0.197
1680103390625242311,-0.168
1680103390632938560,-0.159
1680103390640634838,-0.166,73
1680103390648330669,-0.145
1680103390656026500,-0.10300000000000001
1680103390663722331,-0.061
1680103390671418162,0.006
1680103390679113993,0.07100000000000001
1680103390686809824,0.061
1680103390694505655,0.01
1680103390702201486,-0.004
1680103390709897317,-0.008
1680103390717593148,-0.039
1680103390725288979,-0.065
1680103390732984810,-0.061
1680103390740680641,-0.035
1680103390748376472,-0.021
1680103390756072303,-0.031
1680103390763768134,-0.01
1680103390771463965,0.025
1680103390779159796,0.01
1680103390786855627,-0.021
1680103390794551458,-0.01
1680103390802247289,0.021
1680103390809943120,0.033
1680103390817638951,0.027
1680103390825334782,0.012
1680103390833030613,-0.027
1680103390840726444,-0.079
1680103390848422275,-0.079
1680103390856118106,-0.037
1680103390863813937,-0.025
1680103390871509768,-0.048
1680103390879205599,-0.048
1680103390886901430,-0.008
1680103390894597261,0.027
1680103390902293092,0.035
1680103390909988923,0.035
1680103390917684754,0.05
1680103390925380585,0.067
1680103390933076416,0.079
1680103390940772247,0.1
1680103390948468078,0.126
1680103390956163909,0.109
1680103390963859740,0.061
1680103390971555571,0.048
1680103390979251402,0.09
1680103390986947233,0.115
1680103390994643064,0.088
1680103391002338895,0.073
1680103391010034726,0.111
1680103391017730557,0.126
1680103391025426388,0.117
1680103391033122219,0.151
1680103391040818050,0.20600000000000002
1680103391048513881,0.222
1680103391056209712,0.20400000000000001
1680103391063905543,0.191
1680103391071601374,0.183
1680103391079297205,0.155
1680103391086993036,0.147
1680103391094688867,0.201
1680103391102384698,0.25
1680103391110080529,0.244
1680103391117776360,0.241
1680103391125472191,0.275
1680103391133168022,0.296,,914
1680103391140863853,0.28800000000000003
1680103391148559684,0.273
1680103391156255515,0.28300000000000003
1680103391163951346,0.323
1680103391171647177,0.292
1680103391179343008,0.029
1680103391187038839,-0.462
1680103391194734670,-0.8260000000000001
1680103391202430528,-0.517,73
1680103391210126986,0.374
1680103391217823444,0.803
1680103391225519902,0.47900000000000004
1680103391233216360,0.262
1680103391240912818,0.332
1680103391248609276,0.317
1680103391256305734,0.26
1680103391264002192,0.244
1680103391271698650,0.225
1680103391279395108,0.216
1680103391287091566,0.20800000000000002
1680103391294788024,0.191
1680103391302484482,0.195
1680103391310180940,0.20600000000000002
1680103391317877398,0.187
1680103391325573856,0.166
1680103391333270314,0.159
1680103391340966772,0.098
1680103391348663230,-0.008
1680103391356359688,-0.048
1680103391364056146,-0.029
1680103391371752604,-0.031
1680103391379449062,-0.073
1680103391387145520,-0.138
1680103391394841978,-0.197
1680103391402538436,-0.23700000000000002
1680103391410234894,-0.28300000000000003
1680103391417931352,-0.321
1680103391425627810,-0.321
1680103391433324268,-0.315
1680103391441020726,-0.321
1680103391448717184,-0.338
1680103391456413642,-0.34
1680103391464110100,-0.326
1680103391471806558,-0.323
1680103391479503016,-0.296
1680103391487199474,-0.22
1680103391494895932,-0.183
1680103391502592390,-0.189
1680103391510288848,-0.151
1680103391517985306,-0.088
1680103391525681764,-0.069
1680103391533378222,-0.065
1680103391541074680,-0.037
1680103391548771138,-0.01
1680103391556467596,0.0
1680103391564164054,0.0
1680103391571860512,0.012
1680103391579556970,0.037
1680103391587253428,0.037
1680103391594949886,0.014
1680103391602646344,0.021
1680103391610342802,0.05
1680103391618039260,0.054
1680103391625735718,0.058
1680103391633432176,0.082
1680103391641128634,0.109
1680103391648825092,0.126
1680103391656521550,0.136
1680103391664218008,0.134
1680103391671914466,0.124
1680103391679610924,0.128
1680103391687307382,0.132
1680103391695003840,0.10300000000000001
1680103391702700298,0.073
1680103391710396756,0.082
1680103391718093214,0.094
1680103391725789672,0.122
1680103391733486130,0.17
1680103391741182588,0.176
1680103391748879046,0.11900000000000001
1680103391756575504,0.096
1680103391764271994,0.14
1680103391771968034,0.166
1680103391779664074,0.161
1680103391787360114,0.18
1680103391795056154,0.17400000000000002
1680103391802752194,0.1
1680103391810448234,0.052000000000000005
1680103391818144274,0.077
1680103391825840314,0.098
1680103391833536354,0.075
1680103391841232394,0.025
1680103391848928434,-0.031
1680103391856624474,-0.058
1680103391864320514,-0.056
1680103391872016554,-0.048
1680103391879712594,-0.029
1680103391887408634,-0.025
1680103391895104674,-0.025
1680103391902800714,0.008
1680103391910496754,0.054
1680103391918192794,0.069
1680103391925888834,0.05
1680103391933584874,0.014
1680103391941280914,-0.037
1680103391948976954,-0.063
1680103391956672994,-0.037
1680103391964369034,0.01
1680103391972065074,0.037
1680103391979761114,0.037
1680103391987457154,0.033,,855
1680103391995153194,0.054
1680103392002849234,0.096
1680103392010545274,0.111
1680103392018241314,0.094
1680103392025937354,0.115
1680103392033633394,0.14
1680103392041329434,-0.039
1680103392049025474,-0.502
1680103392056721514,-0.929
1680103392064417554,-0.79
1680103392072113594,0.008
1680103392079809634,0.62
1680103392087505674,0.448
1680103392095201714,0.21
1680103392102897754,0.321
1680103392110593794,0.34900000000000003
1680103392118289834,0.262
1680103392125985874,0.28800000000000003
1680103392133681914,0.328
1680103392141377954,0.313
1680103392149073994,0.321
1680103392156770034,0.342
1680103392164466074,0.319
1680103392172162114,0.311
1680103392179858154,0.332
1680103392187554194,0.302
1680103392195250234,0.20600000000000002
1680103392202946274,0.138
1680103392210642314,0.124
1680103392218338354,0.111
1680103392226034394,0.092
1680103392233730434,0.082
1680103392241426474,0.056
1680103392249122514,0.006
1680103392256818554,-0.056
1680103392264514594,-0.10300000000000001
1680103392272210634,-0.11900000000000001
1680103392279906674,-0.138
1680103392287602714,-0.176
1680103392295298754,-0.187
1680103392302994794,-0.18
1680103392310690834,-0.193
1680103392318386874,-0.195
1680103392326082942,-0.157,72
1680103392333779052,-0.126
1680103392341475162,-0.126
1680103392349171272,-0.155
1680103392356867382,-0.18
1680103392364563492,-0.17
1680103392372259602,-0.187
1680103392379955712,-0.233
1680103392387651822,-0.225
1680103392395347932,-0.20400000000000001
1680103392403044042,-0.212
1680103392410740152,-0.197
1680103392418436262,-0.153
1680103392426132372,-0.14
1680103392433828482,-0.17
1680103392441524592,-0.187
1680103392449220702,-0.168
1680103392456916812,-0.14300000000000002
1680103392464612922,-0.134
1680103392472309032,-0.11900000000000001
1680103392480005142,-0.107
1680103392487701252,-0.109
1680103392495397362,-0.10300000000000001
1680103392503093472,-0.075
1680103392510789582,-0.046
1680103392518485692,-0.025
1680103392526181802,-0.016
1680103392533877912,-0.006
1680103392541574022,0.014
1680103392549270132,0.033
1680103392556966242,0.05
1680103392564662352,0.084
1680103392572358462,0.115
1680103392580054572,0.105
1680103392587750682,0.08600000000000001
1680103392595446792,0.11900000000000001
1680103392603142902,0.164
1680103392610839012,0.17
1680103392618535122,0.17400000000000002
1680103392626231232,0.191
1680103392633927342,0.20400000000000001
1680103392641623452,0.21
1680103392649319562,0.222
1680103392657015672,0.244
1680103392664711782,0.265
1680103392672407892,0.26
1680103392680104002,0.23700000000000002
1680103392687800112,0.225
1680103392695496222,0.23500000000000001
1680103392703192332,0.244
1680103392710888442,0.248
1680103392718584552,0.25
1680103392726280662,0.248
1680103392733976772,0.244
1680103392741672882,0.23900000000000002
1680103392749368992,0.252
1680103392757065102,0.275
1680103392764761212,0.275
1680103392772457322,0.267
1680103392780153432,0.281
1680103392787849542,0.305
1680103392795545652,0.311
1680103392803241762,0.3
1680103392810937872,0.28300000000000003
1680103392818633982,0.262
1680103392826330092,0.23700000000000002
1680103392834026202,0.23700000000000002
1680103392841722312,0.28800000000000003
1680103392849418422,0.319
1680103392857114532,0.258,,869
1680103392864810642,0.18
1680103392872506752,0.193
1680103392880202862,0.22
1680103392887898978,0.20400000000000001
1680103392895595366,0.20400000000000001
1680103392903291754,0.22
1680103392910988142,0.229
1680103392918684530,0.183
1680103392926380918,-0.10300000000000001
1680103392934077306,-0.652
1680103392941773694,-1.043
1680103392949470082,-0.715
1680103392957166470,0.193
1680103392964862858,0.601
1680103392972559246,0.233
1680103392980255634,0.027
1680103392987952022,0.159
1680103392995648410,0.147
1680103393003344798,0.075
1680103393011041186,0.115
1680103393018737574,0.145
1680103393026433962,0.13
1680103393034130350,0.124
1680103393041826738,0.11900000000000001
1680103393049523126,0.122
1680103393057219514,0.134
1680103393064915902,0.11900000000000001
1680103393072612290,0.092
1680103393080308678,0.082
1680103393088005066,0.063
1680103393095701454,0.037
1680103393103397842,0.031
1680103393111094230,0.01
1680103393118790618,-0.035
1680103393126487006,-0.082
1680103393134183394,-0.138
1680103393141879782,-0.18
1680103393149576170,-0.193
1680103393157272558,-0.201
1680103393164968946,-0.218
1680103393172665334,-0.262
1680103393180361722,-0.326
1680103393188058110,-0.338
1680103393195754498,-0.309
1680103393203450886,-0.28600000000000003
1680103393211147274,-0.269
1680103393218843662,-0.25
1680103393226540050,-0.241
1680103393234236438,-0.22
1680103393241932826,-0.17
1680103393249629214,-0.117
1680103393257325602,-0.069
1680103393265021990,-0.027
1680103393272718378,-0.021
1680103393280414766,-0.014
1680103393288111154,0.021
1680103393295807542,0.048
1680103393303503930,0.05
1680103393311200318,0.058
1680103393318896706,0.077
1680103393326593094,0.079
1680103393334289482,0.075
1680103393341985870,0.08600000000000001
1680103393349682258,0.1
1680103393357378646,0.048
1680103393365075034,-0.039
1680103393372771422,-0.05
1680103393380467810,-0.01
1680103393388164198,-0.002
1680103393395860586,-0.002
1680103393403556974,0.016
1680103393411253362,0.018000000000000002
1680103393418949750,-0.002
1680103393426646138,-0.006
1680103393434342526,0.016
1680103393442038914,0.037
1680103393449735358,0.037,72
1680103393457431398,0.037
1680103393465127438,0.056
1680103393472823478,0.09
1680103393480519518,0.107
1680103393488215558,0.11900000000000001
1680103393495911598,0.14
1680103393503607638,0.136
1680103393511303678,0.082
1680103393518999718,0.033
1680103393526695758,0.05
1680103393534391798,0.079
1680103393542087838,0.07100000000000001
1680103393549783878,0.061
1680103393557479918,0.079
1680103393565175958,0.105
1680103393572871998,0.115
1680103393580568038,0.132
1680103393588264078,0.161
1680103393595960118,0.168
1680103393603656158,0.151
1680103393611352198,0.155
1680103393619048238,0.189
1680103393626744278,0.20800000000000002
1680103393634440318,0.193
1680103393642136358,0.176
1680103393649832398,0.178
1680103393657528438,0.178
1680103393665224478,0.17400000000000002
1680103393672920518,0.189
1680103393680616558,0.212
1680103393688312598,0.20600000000000002
1680103393696008638,0.189
1680103393703704678,0.199
1680103393711400718,0.225
1680103393719096758,0.23700000000000002,,862
1680103393726792798,0.23700000000000002
1680103393734488838,0.246
1680103393742184878,0.248
1680103393749880918,0.098
1680103393757576958,-0.323
1680103393765272998,-0.772
1680103393772969038,-0.706
1680103393780665078,0.052000000000000005
1680103393788361118,0.717
1680103393796057158,0.58
1680103393803753198,0.28600000000000003
1680103393811449238,0.334
1680103393819145278,0.353
1680103393826841318,0.28300000000000003
1680103393834537358,0.309
1680103393842233398,0.342
1680103393849929438,0.321
1680103393857625478,0.307
1680103393865321518,0.269
1680103393873017558,0.187
1680103393880713598,0.14300000000000002
1680103393888409638,0.147
1680103393896105678,0.161
1680103393903801718,0.168
1680103393911497758,0.14
1680103393919193798,0.09
1680103393926889838,0.05
1680103393934585878,0.023
1680103393942281918,0.012
1680103393949977958,0.027
1680103393957673998,0.012
1680103393965370038,-0.048
1680103393973066078,-0.113
1680103393980762118,-0.138
1680103393988458158,-0.151
1680103393996154198,-0.187
1680103394003850238,-0.176
1680103394011546306,-0.1
1680103394019242346,-0.075
1680103394026938386,-0.109
1680103394034634426,-0.1
1680103394042330466,-0.058
1680103394050026506,-0.054
1680103394057722546,-0.05
1680103394065418586,0.002
1680103394073114626,0.021
1680103394080810666,-0.027
1680103394088506706,-0.044
1680103394096202746,-0.006
1680103394103898786,-0.002
1680103394111594826,-0.016
1680103394119290866,0.018000000000000002
1680103394126986906,0.061
1680103394134682946,0.084
1680103394142378986,0.067
1680103394150075026,-0.008
1680103394157771066,-0.054
1680103394165467106,-0.048
1680103394173163146,-0.079
1680103394180859186,-0.079
1680103394188555226,0.035
1680103394196251266,0.079
1680103394203947306,0.012
1680103394211643346,-0.046
1680103394219339386,-0.084
1680103394227035426,-0.037
1680103394234731466,0.08600000000000001
1680103394242427506,0.176
1680103394250123546,0.168
1680103394257819586,0.14300000000000002
1680103394265515626,0.18
1680103394273211666,0.222
1680103394280907706,0.227
1680103394288603746,0.222
1680103394296299786,0.212
1680103394303995826,0.20400000000000001
1680103394311691866,0.225
1680103394319387906,0.244
1680103394327083946,0.191
1680103394334779986,0.145
1680103394342476026,0.222
1680103394350172066,0.271
1680103394357868106,0.147
1680103394365564146,-0.006
1680103394373260186,-0.027
1680103394380956226,0.092
1680103394388652266,0.161
1680103394396348306,0.031
1680103394404044346,-0.084
1680103394411740386,-0.061
1680103394419436426,-0.046
1680103394427132466,-0.084
1680103394434828506,-0.149
1680103394442524546,-0.18
1680103394450220586,-0.096
1680103394457916626,0.039
1680103394465612666,0.113
1680103394473308706,0.157
1680103394481004746,0.22
1680103394488700786,0.246
1680103394496396826,0.216
1680103394504092866,0.17400000000000002
1680103394511788906,0.155
1680103394519484946,0.23700000000000002
1680103394527180986,0.277
1680103394534877026,0.006
1680103394542573066,-0.427,,823
1680103394550269106,-0.677
1680103394557965146,-0.424
1680103394565661186,0.361
1680103394573357254,0.8140000000000001,72
1680103394581053294,0.506
1680103394588749334,0.254
1680103394596445374,0.355
1680103394604141414,0.40800000000000003
1680103394611837454,0.321
1680103394619533494,0.218
1680103394627229534,0.201
1680103394634925574,0.23900000000000002
1680103394642621614,0.25
1680103394650317654,0.17400000000000002
1680103394658013694,0.084
1680103394665709734,0.006
1680103394673405774,-0.11900000000000001
1680103394681101814,-0.126
1680103394688797854,-0.006
1680103394696493894,-0.025
1680103394704189934,-0.1
1680103394711885974,-0.031
1680103394719582014,0.016
1680103394727278054,-0.063
1680103394734974094,-0.025
1680103394742670134,0.077
1680103394750366174,-0.042
1680103394758062214,-0.227
1680103394765758254,-0.227
1680103394773454294,-0.199
1680103394781150334,-0.246
1680103394788846374,-0.20800000000000002
1680103394796542414,-0.161
1680103394804238454,-0.252
1680103394811934494,-0.309
1680103394819630534,-0.241
1680103394827326574,-0.229
1680103394835022614,-0.28300000000000003
1680103394842718654,-0.231
1680103394850414694,-0.11900000000000001
1680103394858110734,-0.105
1680103394865806774,-0.134
1680103394873502814,-0.105
1680103394881198854,-0.136
1680103394888894894,-0.191
1680103394896590934,-0.147
1680103394904286974,-0.058
1680103394911983014,-0.006
1680103394919679054,0.008
1680103394927375094,0.033
1680103394935071134,0.016
1680103394942767174,-0.044
1680103394950463214,-0.077
1680103394958159254,-0.1
1680103394965855294,-0.10300000000000001
1680103394973551334,-0.082
1680103394981247374,-0.10300000000000001
1680103394988943414,-0.117
1680103394996639454,-0.073
1680103395004335494,-0.073
1680103395012031534,-0.037
1680103395019727574,0.10300000000000001
1680103395027423614,0.111
1680103395035119654,-0.004
1680103395042815694,-0.044
1680103395050511734,-0.073
1680103395058207774,-0.067
1680103395065903814,0.07100000000000001
1680103395073599854,0.136
1680103395081295894,0.016
1680103395088991934,-0.109
1680103395096687974,-0.176
1680103395104384014,-0.20400000000000001
1680103395112080054,-0.151
1680103395119776094,-0.132
1680103395127472134,-0.159
1680103395135168202,-0.113
1680103395142864242,-0.113
1680103395150560282,-0.164
1680103395158256322,-0.161
1680103395165952362,-0.183
1680103395173648402,-0.176
1680103395181344442,-0.016
1680103395189040482,0.124
1680103395196736522,0.044
1680103395204432562,0.016
1680103395212128602,0.145
1680103395219824642,0.096
1680103395227520682,-0.006
1680103395235216722,0.069
1680103395242912762,0.164
1680103395250608802,0.189
1680103395258304842,0.20400000000000001
1680103395266000882,0.065
1680103395273696922,-0.366
1680103395281392962,-0.8160000000000001
1680103395289089002,-0.772
1680103395296785042,-0.048
1680103395304481082,0.5720000000000001
1680103395312177122,0.376
1680103395319873162,-0.016
1680103395327569202,0.002
1680103395335265242,0.13
1680103395342961282,0.176
1680103395350657322,0.26
1680103395358353362,0.302
1680103395366049402,0.241
1680103395373745442,0.277
1680103395381441482,0.307
1680103395389137522,0.159
1680103395396833562,0.149
1680103395404529602,0.122,,863
1680103395412225642,-0.18
1680103395419921682,-0.214
1680103395427617722,0.029
1680103395435313762,0.098
1680103395443009802,0.107
1680103395450705842,0.17
1680103395458401882,0.11900000000000001
1680103395466097922,0.023
1680103395473793962,0.031
1680103395481490002,0.039
1680103395489186042,0.012
1680103395496882082,-0.056
1680103395504578122,-0.20600000000000002
1680103395512274162,-0.176
1680103395519970202,0.033
1680103395527666242,0.05
1680103395535362282,-0.021
1680103395543058322,-0.048
1680103395550754362,-0.21
1680103395558450402,-0.315
1680103395566146442,-0.14300000000000002
1680103395573842482,0.082
1680103395581538522,0.25
1680103395589234562,0.248
1680103395596930602,0.027
1680103395604626642,-0.048
1680103395612322682,0.084
1680103395620018722,0.147
1680103395627714762,0.126
1680103395635410802,0.214
1680103395643106842,0.292
1680103395650802882,0.22
1680103395658498922,0.195
1680103395666194962,0.214
1680103395673891002,0.006
1680103395681587042,-0.389
1680103395689283082,-0.502
1680103395696979150,-0.332,71
1680103395704676235,-0.313
1680103395712373320,-0.277
1680103395720070405,-0.025
1680103395727767490,0.122
1680103395735464575,0.006
1680103395743161660,-0.155
1680103395750858745,-0.132
1680103395758555830,-0.07100000000000001
1680103395766252915,-0.262
1680103395773950000,-0.515
1680103395781647085,-0.502
1680103395789344170,-0.37
1680103395797041255,-0.23900000000000002
1680103395804738340,0.023
1680103395812435425,0.176
1680103395820132510,0.021
1680103395827829595,-0.058
1680103395835526680,0.031
1680103395843223765,0.023
1680103395850920850,-0.002
1680103395858617935,0.014
1680103395866315020,-0.042
1680103395874012105,-0.021
1680103395881709190,0.004
1680103395889406275,-0.248
1680103395897103360,-0.368
1680103395904800445,-0.17400000000000002
1680103395912497530,-0.056
1680103395920194615,0.084
1680103395927891700,0.197
1680103395935588785,0.1
1680103395943285870,0.061
1680103395950982955,0.126
1680103395958680040,0.115
1680103395966377125,0.113
1680103395974074210,0.193
1680103395981771295,0.088
1680103395989468380,-0.406
1680103395997165465,-0.9480000000000001
1680103396004862550,-0.9500000000000001
1680103396012559635,-0.23700000000000002
1680103396020256720,0.427
1680103396027953805,0.332
1680103396035650890,0.08600000000000001
1680103396043347975,0.098
1680103396051045060,0.029
1680103396058742145,-0.023
1680103396066439230,0.052000000000000005
1680103396074136315,0.058
1680103396081833400,0.016
1680103396089530485,0.046
1680103396097227570,0.082
1680103396104924655,0.092
1680103396112621740,0.115
1680103396120318825,0.084
1680103396128015910,0.027
1680103396135712995,0.023
1680103396143410080,0.01
1680103396151107165,-0.042
1680103396158804250,-0.021
1680103396166501335,0.08600000000000001
1680103396174198420,0.1
1680103396181895505,0.031
1680103396189592590,0.025
1680103396197289675,0.07100000000000001
1680103396204986760,0.07100000000000001
1680103396212683845,-0.023
1680103396220380930,-0.061
1680103396228078015,0.058
1680103396235775100,0.1
1680103396243472185,-0.016
1680103396251169270,-0.067
1680103396258866395,0.008,71
1680103396266561390,0.122
1680103396274256385,0.195
1680103396281951380,0.214
1680103396289646375,0.23900000000000002,,883
1680103396297341370,0.225
1680103396305036365,0.246
1680103396312731360,0.368
1680103396320426355,0.374
1680103396328121350,0.279
1680103396335816345,0.28300000000000003
1680103396343511340,0.28800000000000003
1680103396351206335,0.246
1680103396358901330,0.254
1680103396366596325,0.222
1680103396374291320,0.134
1680103396381986315,0.088
1680103396389681310,0.021
1680103396397376305,-0.058
1680103396405071300,-0.039
1680103396412766295,0.025
1680103396420461290,0.031
1680103396428156285,0.008
1680103396435851280,0.039
1680103396443546275,0.07100000000000001
1680103396451241270,0.029
1680103396458936265,-0.006
1680103396466631260,-0.006
1680103396474326255,0.016
1680103396482021250,0.094
1680103396489716245,0.098
1680103396497411240,0.01
1680103396505106235,0.025
1680103396512801230,0.094
1680103396520496225,0.098
1680103396528191220,0.088
1680103396535886215,0.075
1680103396543581210,0.042
1680103396551276205,-0.012
1680103396558971200,-0.056
1680103396566666195,-0.07100000000000001
1680103396574361190,-0.082
1680103396582056185,-0.109
1680103396589751180,-0.096
1680103396597446175,-0.079
1680103396605141170,-0.14300000000000002
1680103396612836165,-0.161
1680103396620531160,-0.10300000000000001
1680103396628226155,-0.077
1680103396635921150,-0.109
1680103396643616145,-0.151
1680103396651311140,-0.176
1680103396659006135,-0.147
1680103396666701130,-0.098
1680103396674396125,-0.092
1680103396682091120,-0.084
1680103396689786115,-0.157
1680103396697481110,-0.42
1680103396705176105,-0.8200000000000001
1680103396712871100,-1.106
1680103396720566095,-0.755
1680103396728261090,0.124
1680103396735956085,0.492
1680103396743651080,0.218
1680103396751346075,0.111
1680103396759041070,0.17
1680103396766736065,0.096
1680103396774431060,0.088
1680103396782126055,0.134
1680103396789821050,0.113
1680103396797516045,0.096
1680103396805211040,0.122
1680103396812906035,0.115
1680103396820601048,0.098
1680103396828297088,0.155
1680103396835993128,0.25
1680103396843689168,0.313
1680103396851385208,0.34700000000000003
1680103396859081248,0.401
1680103396866777288,0.431
1680103396874473328,0.34700000000000003
1680103396882169368,0.28300000000000003
1680103396889865408,0.277
1680103396897561448,0.088
1680103396905257488,-0.271
1680103396912953528,-0.437
1680103396920649568,-0.246
1680103396928345608,-0.008
1680103396936041648,-0.004
1680103396943737688,-0.10300000000000001
1680103396951433728,-0.096
1680103396959129768,0.006
1680103396966825808,0.042
1680103396974521848,0.006
1680103396982217888,0.01
1680103396989913928,0.075
1680103396997609968,0.168
1680103397005306008,0.246
1680103397013002048,0.296
1680103397020698088,0.281
1680103397028394128,0.269
1680103397036090168,0.368
1680103397043786208,0.483
1680103397051482248,0.47500000000000003
1680103397059178288,0.422
1680103397066874328,0.448
1680103397074570368,0.445
1680103397082266408,0.361
1680103397089962448,0.338
1680103397097658488,0.397
1680103397105354528,0.422
1680103397113050568,0.42
1680103397120746608,0.427,,826
1680103397128442648,0.37
1680103397136138688,0.29
1680103397143834728,0.279
1680103397151530768,0.319
1680103397159226808,0.33
1680103397166922848,0.277
1680103397174618888,0.271
1680103397182314928,0.363
1680103397190010968,0.427
1680103397197707008,0.378
1680103397205403048,0.34700000000000003
1680103397213099088,0.391
1680103397220795128,0.42
1680103397228491168,0.41200000000000003
1680103397236187208,0.359
1680103397243883248,0.311
1680103397251579288,0.342
1680103397259275328,0.418
1680103397266971368,0.47300000000000003
1680103397274667408,0.47900000000000004
1680103397282363448,0.45
1680103397290059488,0.403
1680103397297755528,0.389
1680103397305451568,0.448
1680103397313147608,0.454
1680103397320843648,0.382
1680103397328539688,0.41600000000000004
1680103397336235728,0.431
1680103397343931768,0.323
1680103397351627808,0.28800000000000003
1680103397359323848,0.29
1680103397367019888,0.214
1680103397374715928,0.153
1680103397382411996,0.105,72
1680103397390108036,0.084
1680103397397804076,0.08600000000000001
1680103397405500116,-0.18
1680103397413196156,-0.78
1680103397420892196,-1.236
1680103397428588236,-1.0110000000000001
1680103397436284276,-0.20600000000000002
1680103397443980316,0.265
1680103397451676356,0.033
1680103397459372396,-0.185
1680103397467068436,-0.132
1680103397474764476,-0.166
1680103397482460516,-0.227
1680103397490156556,-0.178
1680103397497852596,-0.178
1680103397505548636,-0.254
1680103397513244676,-0.302
1680103397520940716,-0.25
1680103397528636756,-0.17
1680103397536332796,-0.197
1680103397544028836,-0.185
1680103397551724876,-0.077
1680103397559420916,-0.193
1680103397567116956,-0.441
1680103397574812996,-0.395
1680103397582509036,-0.23500000000000001
1680103397590205076,-0.281
1680103397597901116,-0.34500000000000003
1680103397605597156,-0.34
1680103397613293196,-0.34500000000000003
1680103397620989236,-0.326
1680103397628685276,-0.321
1680103397636381316,-0.34700000000000003
1680103397644077356,-0.323
1680103397651773396,-0.277
1680103397659469436,-0.28300000000000003
1680103397667165476,-0.256
1680103397674861516,-0.229
1680103397682557556,-0.258
1680103397690253596,-0.153
1680103397697949636,0.0
1680103397705645676,0.012
1680103397713341716,0.037
1680103397721037756,0.124
1680103397728733796,0.166
1680103397736429836,0.17200000000000001
1680103397744125876,0.153
1680103397751821916,0.126
1680103397759517956,0.11900000000000001
1680103397767213996,0.124
1680103397774910036,0.168
1680103397782606076,0.218
1680103397790302116,0.185
1680103397797998156,0.164
1680103397805694196,0.273
1680103397813390236,0.307
1680103397821086276,0.17400000000000002
1680103397828782316,0.185
1680103397836478356,0.311
1680103397844174396,0.376
1680103397851870436,0.41400000000000003
1680103397859566476,0.366
1680103397867262516,0.311
1680103397874958556,0.34
1680103397882654596,0.342
1680103397890350636,0.338
1680103397898046676,0.37,,783
1680103397905742716,0.328
1680103397913438756,0.23900000000000002
1680103397921134796,0.22
1680103397928830836,0.216
1680103397936526876,0.178
1680103397944222944,0.151
1680103397951919402,0.153
1680103397959615860,0.21
1680103397967312318,0.28300000000000003
1680103397975008776,0.28800000000000003
1680103397982705234,0.212
1680103397990401692,0.153
1680103397998098150,0.155
1680103398005794608,0.155
1680103398013491066,0.134
1680103398021187524,0.105
1680103398028883982,0.128
1680103398036580440,0.195
1680103398044276898,0.168
1680103398051973356,0.128
1680103398059669814,0.187
1680103398067366272,0.21
1680103398075062730,0.178
1680103398082759188,0.149
1680103398090455646,0.161
1680103398098152104,0.23700000000000002
1680103398105848562,0.244
1680103398113545020,0.11900000000000001
1680103398121241478,-0.233
1680103398128937936,-0.812
1680103398136634394,-1.114
1680103398144330852,-0.681
1680103398152027310,0.037
1680103398159723768,0.178
1680103398167420226,-0.094
1680103398175116684,-0.164
1680103398182813142,-0.178
1680103398190509600,-0.20800000000000002
1680103398198206058,-0.046
1680103398205902516,0.134
1680103398213598974,0.145
1680103398221295432,0.10300000000000001
1680103398228991890,0.05
1680103398236688348,-0.042
1680103398244384806,-0.004
1680103398252081264,0.145
1680103398259777722,0.164
1680103398267474180,0.115
1680103398275170638,0.136
1680103398282867096,0.111
