ts,red,ir,green
1680103390111607,117335.0,160363.0,9727.0
1680103390121607,117308.0,160292.0,9749.0
1680103390130607,117284.0,160258.0,9748.0
1680103390141607,117253.0,160286.0,9726.0
1680103390151607,117211.0,160246.0,9707.0
1680103390161607,117167.0,160145.0,9717.0
1680103390171607,117136.0,160165.0,9690.0
1680103390181607,117135.0,160106.0,9682.0
1680103390192607,117048.0,160043.0,9674.0
1680103390202607,116978.0,160040.0,9662.0
1680103390212607,117000.0,159979.0,9657.0
1680103390221608,116963.0,159955.0,9650.0
1680103390231608,116927.0,159885.0,9648.0
1680103390241608,116891.0,159863.0,9645.0
1680103390251608,116863.0,159892.0,9634.0
1680103390260608,116817.0,159856.0,9611.0
1680103390270608,116837.0,159835.0,9628.0
1680103390281607,116831.0,159835.0,9574.0
1680103390291607,116815.0,159831.0,9618.0
1680103390300608,116786.0,159862.0,9633.0
1680103390311607,116839.0,159873.0,9620.0
1680103390321607,116845.0,159863.0,9607.0
1680103390331607,116874.0,159829.0,9637.0
1680103390340608,116881.0,159902.0,9645.0
1680103390350607,116944.0,159939.0,9647.0
1680103390361607,116887.0,159944.0,9647.0
1680103390371607,116901.0,159946.0,9641.0
1680103390381607,116935.0,159991.0,9643.0
1680103390392607,116933.0,159952.0,9651.0
1680103390400608,116903.0,159954.0,9650.0
1680103390411608,116953.0,159930.0,9617.0
1680103390421608,116949.0,159924.0,9627.0
1680103390430608,116938.0,159926.0,9660.0
1680103390441608,116934.0,159927.0,9653.0
1680103390451608,116889.0,159913.0,9654.0
1680103390461608,116903.0,159890.0,9639.0
1680103390471608,116919.0,159903.0,9651.0
1680103390480608,116870.0,159846.0,9633.0
1680103390491608,116900.0,159869.0,9651.0
1680103390502607,116882.0,159832.0,9640.0
1680103390510607,116875.0,159783.0,9630.0
1680103390521607,116866.0,159820.0,9612.0
1680103390530607,116839.0,159795.0,9626.0
1680103390541607,116836.0,159790.0,9592.0
1680103390552607,116802.0,159780.0,9608.0
1680103390562607,116812.0,159756.0,9617.0
1680103390573607,116796.0,159732.0,9643.0
1680103390581608,116795.0,159745.0,9624.0
1680103390590608,116742.0,159727.0,9627.0
1680103390600608,116750.0,159706.0,9627.0
1680103390611608,116787.0,159703.0,9581.0
1680103390621608,116781.0,159696.0,9620.0
1680103390630608,116771.0,159736.0,9619.0
1680103390640608,116771.0,159745.0,9611.0
1680103390651608,116784.0,159695.0,9598.0
1680103390661608,116785.0,159665.0,9618.0
1680103390671608,116786.0,159733.0,9613.0
1680103390681608,116812.0,159715.0,9613.0
1680103390692608,116735.0,159762.0,9609.0
1680103390703607,116787.0,159716.0,9603.0
1680103390711607,116783.0,159669.0,9624.0
1680103390720607,116766.0,159727.0,9598.0
1680103390731607,116739.0,159670.0,9601.0
1680103390741607,116778.0,159673.0,9620.0
1680103390751607,116773.0,159651.0,9604.0
1680103390760608,116744.0,159684.0,9624.0
1680103390770608,116778.0,159687.0,9590.0
1680103390781607,116776.0,159657.0,9602.0
1680103390791607,116723.0,159626.0,9610.0
1680103390800608,116753.0,159675.0,9614.0
1680103390810608,116806.0,159645.0,9612.0
1680103390821607,116733.0,159677.0,9567.0
1680103390831607,116719.0,159637.0,9592.0
1680103390842607,116738.0,159668.0,9603.0
1680103390851607,116727.0,159613.0,9614.0
1680103390860607,116729.0,159592.0,9596.0
1680103390871607,116749.0,159660.0,9609.0
1680103390880607,116783.0,159674.0,9596.0
1680103390890607,116820.0,159726.0,9606.0
1680103390901607,116877.0,159805.0,9665.0
1680103390911607,116977.0,159806.0,9679.0
1680103390921607,117046.0,159973.0,9697.0
1680103390930607,117097.0,160023.0,9697.0
1680103390941608,117208.0,160104.0,9721.0
1680103390950608,117267.0,160150.0,9707.0
1680103390961608,117242.0,160176.0,9701.0
1680103390972607,117260.0,160171.0,9724.0
1680103390980607,117268.0,160129.0,9735.0
1680103390991607,117225.0,160125.0,9744.0
1680103391000607,117163.0,160117.0,9727.0
1680103391010607,117210.0,160061.0,9689.0
1680103391021607,117163.0,160017.0,9711.0
1680103391030607,117124.0,159993.0,9692.0
1680103391041607,117084.0,159943.0,9685.0
1680103391050607,117074.0,159900.0,9670.0
1680103391060607,117033.0,159821.0,9673.0
1680103391071607,117012.0,159854.0,9670.0
1680103391081607,117014.0,159829.0,9661.0
1680103391092607,116914.0,159835.0,9639.0
1680103391101607,116904.0,159754.0,9652.0
1680103391110607,116876.0,159717.0,9622.0
1680103391121608,116849.0,159701.0,9614.0
1680103391130608,116815.0,159684.0,9585.0
1680103391140608,116814.0,159677.0,9581.0
1680103391151608,116815.0,159664.0,9599.0
1680103391160608,116816.0,159613.0,9613.0
1680103391171608,116820.0,159701.0,9616.0
1680103391180608,116823.0,159649.0,9618.0
1680103391191608,116842.0,159716.0,9608.0
1680103391201608,116865.0,159724.0,9612.0
1680103391211608,116884.0,159697.0,9627.0
1680103391221608,116897.0,159780.0,9632.0
1680103391232607,116907.0,159729.0,9634.0
1680103391243607,116916.0,159778.0,9664.0
1680103391251607,116925.0,159771.0,9638.0
1680103391260607,116915.0,159845.0,9660.0
1680103391270607,116876.0,159825.0,9648.0
1680103391280607,116960.0,159828.0,9622.0
1680103391291607,116950.0,159777.0,9649.0
1680103391300608,116952.0,159828.0,9638.0
1680103391311607,116919.0,159788.0,9639.0
1680103391320608,116882.0,159771.0,9635.0
1680103391331607,116902.0,159792.0,9623.0
1680103391340608,116860.0,159793.0,9621.0
1680103391350607,116888.0,159796.0,9594.0
1680103391361607,116921.0,159791.0,9607.0
1680103391371607,116861.0,159767.0,9623.0
1680103391380607,116872.0,159775.0,9585.0
1680103391392608,116853.0,159763.0,9604.0
1680103391402608,116841.0,159747.0,9636.0
1680103391413607,116817.0,159732.0,9579.0
1680103391421607,116830.0,159719.0,9607.0
1680103391430607,116812.0,159705.0,9606.0
1680103391440607,116800.0,159732.0,9605.0
1680103391451607,116817.0,159756.0,9575.0
1680103391461607,116813.0,159741.0,9603.0
1680103391470607,116807.0,159747.0,9599.0
1680103391481608,116813.0,159779.0,9600.0
1680103391490608,116777.0,159771.0,9600.0
1680103391501608,116821.0,159770.0,9605.0
1680103391510608,116819.0,159789.0,9580.0
1680103391520608,116841.0,159785.0,9600.0
1680103391531607,116817.0,159822.0,9562.0
1680103391542607,116834.0,159851.0,9584.0
1680103391550607,116825.0,159757.0,9614.0
1680103391560607,116823.0,159822.0,9590.0
1680103391570607,116849.0,159831.0,9553.0
1680103391581607,116863.0,159839.0,9597.0
1680103391590607,116852.0,159806.0,9586.0
1680103391600607,116847.0,159853.0,9597.0
1680103391610607,116853.0,159842.0,9608.0
1680103391621607,116819.0,159905.0,9600.0
1680103391629607,116797.0,159869.0,9601.0
1680103391640607,116850.0,159888.0,9582.0
1680103391651607,116865.0,159885.0,9597.0
1680103391661608,116867.0,159918.0,9600.0
1680103391671608,116873.0,159881.0,9584.0
1680103391680608,116887.0,159909.0,9597.0
1680103391691608,116868.0,159898.0,9604.0
1680103391700608,116917.0,159956.0,9610.0
1680103391711608,116938.0,160005.0,9628.0
1680103391720608,117037.0,160093.0,9620.0
1680103391730608,117107.0,160102.0,9663.0
1680103391741608,117165.0,160257.0,9674.0
1680103391750608,117214.0,160272.0,9694.0
1680103391760608,117309.0,160337.0,9704.0
1680103391770608,117340.0,160347.0,9711.0
1680103391780608,117321.0,160409.0,9708.0
1680103391791607,117368.0,160400.0,9688.0
1680103391800608,117366.0,160380.0,9711.0
1680103391810608,117347.0,160295.0,9706.0
1680103391820608,117322.0,160326.0,9694.0
1680103391831607,117322.0,160321.0,9663.0
1680103391840608,117277.0,160297.0,9676.0
1680103391850608,117232.0,160245.0,9633.0
1680103391861608,117188.0,160270.0,9655.0
1680103391872608,117152.0,160149.0,9653.0
1680103391881608,117104.0,160141.0,9638.0
1680103391892608,117115.0,160094.0,9632.0
1680103391900607,117023.0,160086.0,9628.0
1680103391910607,117042.0,160026.0,9592.0
1680103391921607,117009.0,159977.0,9619.0
1680103391930607,116975.0,159983.0,9612.0
1680103391940607,116939.0,159949.0,9595.0
1680103391950607,116915.0,159921.0,9593.0
1680103391961607,116931.0,159929.0,9551.0
1680103391970607,116927.0,159902.0,9605.0
1680103391980607,116962.0,159925.0,9600.0
1680103391991607,116942.0,159964.0,9585.0
1680103392001607,116942.0,159991.0,9596.0
1680103392012607,116973.0,159978.0,9601.0
1680103392020608,116927.0,159996.0,9624.0
1680103392030608,117005.0,159999.0,9597.0
1680103392040608,117029.0,160014.0,9604.0
1680103392050608,117035.0,160033.0,9599.0
1680103392060608,117033.0,160045.0,9628.0
1680103392070608,117044.0,160054.0,9630.0
1680103392081607,117042.0,160037.0,9623.0
1680103392089607,117025.0,159999.0,9613.0
1680103392100607,116987.0,160043.0,9620.0
1680103392111607,117027.0,160006.0,9608.0
1680103392120607,116977.0,159985.0,9617.0
1680103392130607,117003.0,160006.0,9611.0
1680103392140607,117017.0,160005.0,9604.0
1680103392151607,116957.0,160022.0,9597.0
1680103392162607,116964.0,159969.0,9598.0
1680103392171607,116956.0,159938.0,9589.0
1680103392180607,116936.0,159948.0,9634.0
1680103392190607,116857.0,159921.0,9599.0
1680103392200608,116919.0,159908.0,9589.0
1680103392211608,116902.0,159849.0,9592.0
1680103392220608,116895.0,159816.0,9600.0
1680103392230608,116883.0,159912.0,9584.0
1680103392241608,116872.0,159875.0,9566.0
1680103392251608,116867.0,159851.0,9575.0
1680103392260608,116877.0,159871.0,9559.0
1680103392270608,116888.0,159877.0,9576.0
1680103392280608,116860.0,159867.0,9556.0
1680103392291607,116863.0,159901.0,9581.0
1680103392302607,116853.0,159882.0,9570.0
1680103392310607,116850.0,159847.0,9573.0
1680103392320607,116836.0,159852.0,9578.0
1680103392331607,116852.0,159847.0,9563.0
1680103392340607,116846.0,159815.0,9585.0
1680103392350607,116843.0,159791.0,9584.0
1680103392360607,116849.0,159847.0,9577.0
1680103392370607,116840.0,159836.0,9562.0
1680103392380608,116854.0,159820.0,9569.0
1680103392390608,116819.0,159804.0,9587.0
1680103392400608,116856.0,159850.0,9587.0
1680103392411608,116842.0,159877.0,9575.0
1680103392421608,116847.0,159857.0,9581.0
1680103392429607,116800.0,159839.0,9572.0
1680103392440607,116823.0,159806.0,9567.0
1680103392451607,116821.0,159822.0,9579.0
1680103392460607,116802.0,159779.0,9568.0
1680103392470607,116780.0,159800.0,9575.0
1680103392480607,116792.0,159770.0,9557.0
1680103392490607,116775.0,159755.0,9575.0
1680103392501607,116754.0,159729.0,9570.0
1680103392509607,116688.0,159756.0,9559.0
1680103392520607,116756.0,159719.0,9544.0
1680103392530607,116732.0,159666.0,9568.0
1680103392540607,116686.0,159717.0,9562.0
1680103392550607,116747.0,159731.0,9556.0
1680103392560608,116799.0,159794.0,9565.0
1680103392570608,116855.0,159850.0,9604.0
1680103392581607,116920.0,159959.0,9604.0
1680103392590608,117007.0,160045.0,9632.0
1680103392600607,117066.0,160065.0,9669.0
1680103392610607,117138.0,160132.0,9677.0
1680103392620607,117179.0,160205.0,9697.0
1680103392630607,117269.0,160250.0,9695.0
1680103392640607,117293.0,160224.0,9703.0
1680103392650607,117304.0,160206.0,9705.0
1680103392660607,117262.0,160195.0,9705.0
1680103392671607,117286.0,160251.0,9698.0
1680103392680607,117258.0,160186.0,9686.0
1680103392691607,117205.0,160180.0,9675.0
1680103392702607,117190.0,160109.0,9668.0
1680103392712607,117142.0,160060.0,9692.0
1680103392720607,117115.0,159996.0,9665.0
1680103392730607,117063.0,159908.0,9637.0
1680103392740608,117023.0,159930.0,9635.0
1680103392750608,116996.0,159890.0,9600.0
1680103392760608,116962.0,159831.0,9589.0
1680103392770608,116914.0,159801.0,9599.0
1680103392780608,116835.0,159767.0,9598.0
1680103392791607,116834.0,159725.0,9590.0
1680103392799607,116805.0,159678.0,9576.0
1680103392810607,116767.0,159677.0,9529.0
1680103392821607,116744.0,159664.0,9561.0
1680103392831607,116691.0,159688.0,9559.0
1680103392842607,116737.0,159634.0,9557.0
1680103392849607,116731.0,159569.0,9569.0
1680103392860607,116729.0,159657.0,9566.0
1680103392871607,116740.0,159668.0,9547.0
1680103392879607,116752.0,159664.0,9574.0
1680103392890607,116753.0,159647.0,9584.0
1680103392899607,116751.0,159712.0,9581.0
1680103392910607,116796.0,159706.0,9555.0
1680103392921608,116816.0,159732.0,9594.0
1680103392929607,116804.0,159691.0,9588.0
1680103392940607,116829.0,159766.0,9595.0
1680103392950607,116830.0,159741.0,9603.0
1680103392960607,116832.0,159738.0,9590.0
1680103392971607,116778.0,159772.0,9574.0
1680103392982607,116820.0,159770.0,9620.0
1680103392992607,116803.0,159740.0,9564.0
1680103393000607,116825.0,159732.0,9589.0
1680103393010607,116810.0,159686.0,9589.0
1680103393019607,116798.0,159699.0,9592.0
1680103393030607,116770.0,159711.0,9582.0
1680103393041607,116792.0,159698.0,9566.0
1680103393049607,116782.0,159658.0,9579.0
1680103393059607,116775.0,159705.0,9579.0
1680103393070607,116756.0,159662.0,9565.0
1680103393080607,116774.0,159632.0,9587.0
1680103393089607,116775.0,159699.0,9572.0
1680103393100608,116758.0,159612.0,9546.0
1680103393110608,116763.0,159644.0,9565.0
1680103393121608,116769.0,159660.0,9567.0
1680103393131608,116747.0,159609.0,9566.0
1680103393139608,116750.0,159561.0,9563.0
1680103393150607,116727.0,159641.0,9566.0
1680103393160607,116709.0,159614.0,9566.0
1680103393170607,116729.0,159604.0,9535.0
1680103393180607,116711.0,159569.0,9576.0
1680103393189607,116705.0,159590.0,9562.0
1680103393200607,116687.0,159562.0,9564.0
1680103393211607,116701.0,159556.0,9563.0
1680103393219607,116684.0,159551.0,9559.0
1680103393230607,116672.0,159566.0,9577.0
1680103393240607,116636.0,159537.0,9560.0
1680103393250607,116672.0,159539.0,9537.0
1680103393260607,116687.0,159542.0,9570.0
1680103393270607,116709.0,159550.0,9558.0
1680103393281608,116671.0,159544.0,9551.0
1680103393292608,116615.0,159525.0,9558.0
1680103393299608,116632.0,159513.0,9605.0
1680103393310608,116671.0,159502.0,9538.0
1680103393320608,116658.0,159466.0,9559.0
1680103393330608,116656.0,159497.0,9568.0
1680103393340608,116636.0,159483.0,9560.0
1680103393349608,116658.0,159474.0,9548.0
1680103393360607,116634.0,159443.0,9553.0
1680103393370607,116620.0,159403.0,9550.0
1680103393379608,116604.0,159445.0,9560.0
1680103393390607,116614.0,159443.0,9534.0
1680103393400607,116608.0,159388.0,9542.0
1680103393410607,116606.0,159412.0,9555.0
1680103393420607,116634.0,159443.0,9558.0
1680103393431607,116623.0,159433.0,9522.0
1680103393441607,116645.0,159462.0,9564.0
1680103393452607,116651.0,159539.0,9632.0
1680103393460608,116699.0,159585.0,9604.0
1680103393469608,116852.0,159676.0,9611.0
1680103393480608,116933.0,159758.0,9640.0
1680103393490608,117033.0,159807.0,9672.0
1680103393500608,117114.0,159960.0,9679.0
1680103393509608,117156.0,159999.0,9681.0
1680103393520608,117204.0,160032.0,9709.0
1680103393530608,117232.0,160033.0,9674.0
1680103393540608,117248.0,160027.0,9696.0
1680103393551607,117204.0,160010.0,9653.0
1680103393559607,117175.0,160004.0,9672.0
1680103393570607,117124.0,159918.0,9658.0
1680103393580607,117109.0,159891.0,9639.0
1680103393589607,117066.0,159843.0,9655.0
1680103393600607,117038.0,159838.0,9656.0
1680103393609607,116974.0,159789.0,9649.0
1680103393620607,116981.0,159760.0,9595.0
1680103393629607,116940.0,159742.0,9626.0
1680103393639608,116878.0,159712.0,9617.0
1680103393650607,116881.0,159646.0,9620.0
1680103393659608,116898.0,159637.0,9596.0
1680103393670607,116787.0,159610.0,9565.0
1680103393681607,116787.0,159586.0,9568.0
1680103393691607,116769.0,159491.0,9578.0
1680103393702607,116742.0,159519.0,9588.0
1680103393710607,116728.0,159498.0,9567.0
1680103393720607,116698.0,159524.0,9579.0
1680103393729607,116729.0,159511.0,9577.0
1680103393740607,116717.0,159535.0,9586.0
1680103393750607,116762.0,159552.0,9568.0
1680103393759607,116782.0,159615.0,9582.0
1680103393770607,116778.0,159595.0,9566.0
1680103393780607,116799.0,159604.0,9601.0
1680103393790607,116840.0,159590.0,9607.0
1680103393799607,116859.0,159638.0,9609.0
1680103393809607,116868.0,159593.0,9568.0
1680103393820608,116887.0,159672.0,9617.0
1680103393830608,116909.0,159685.0,9612.0
1680103393840608,116876.0,159642.0,9588.0
1680103393850607,116873.0,159689.0,9605.0
1680103393861607,116852.0,159592.0,9602.0
1680103393870607,116809.0,159614.0,9598.0
1680103393880607,116837.0,159616.0,9591.0
1680103393892608,116802.0,159580.0,9597.0
1680103393899608,116805.0,159559.0,9589.0
1680103393910607,116775.0,159552.0,9581.0
1680103393920607,116729.0,159537.0,9588.0
1680103393929607,116772.0,159511.0,9558.0
1680103393940607,116749.0,159524.0,9582.0
1680103393949607,116729.0,159486.0,9587.0
1680103393960607,116687.0,159495.0,9579.0
1680103393970607,116721.0,159479.0,9557.0
1680103393979607,116673.0,159455.0,9572.0
1680103393990607,116705.0,159460.0,9577.0
1680103394000608,116735.0,159481.0,9572.0
1680103394010608,116668.0,159506.0,9544.0
1680103394021608,116690.0,159476.0,9560.0
1680103394030608,116707.0,159500.0,9562.0
1680103394040608,116702.0,159451.0,9576.0
1680103394049608,116692.0,159506.0,9569.0
1680103394059608,116685.0,159489.0,9547.0
1680103394070608,116697.0,159514.0,9559.0
1680103394080608,116687.0,159492.0,9556.0
1680103394089608,116693.0,159498.0,9566.0
1680103394099608,116676.0,159456.0,9560.0
1680103394110607,116689.0,159539.0,9567.0
1680103394119608,116681.0,159528.0,9552.0
1680103394129608,116667.0,159468.0,9544.0
1680103394140607,116683.0,159524.0,9568.0
1680103394150607,116697.0,159582.0,9554.0
1680103394161607,116679.0,159521.0,9561.0
1680103394170607,116641.0,159535.0,9553.0
1680103394179608,116696.0,159512.0,9529.0
1680103394190608,116680.0,159495.0,9559.0
1680103394200608,116673.0,159471.0,9557.0
1680103394210608,116666.0,159460.0,9560.0
1680103394219608,116666.0,159551.0,9550.0
1680103394229608,116662.0,159521.0,9514.0
1680103394240608,116659.0,159498.0,9544.0
1680103394250608,116663.0,159493.0,9560.0
1680103394259608,116663.0,159551.0,9557.0
1680103394269608,116694.0,159562.0,9571.0
1680103394279608,116738.0,159569.0,9580.0
1680103394290608,116790.0,159662.0,9593.0
1680103394299608,116881.0,159734.0,9608.0
1680103394309608,116911.0,159816.0,9584.0
1680103394320608,117011.0,159906.0,9638.0
1680103394331607,117122.0,160012.0,9665.0
1680103394340608,117175.0,159969.0,9678.0
1680103394351607,117224.0,160057.0,9691.0
1680103394361608,117254.0,160066.0,9713.0
1680103394372608,117274.0,160070.0,9718.0
1680103394379608,117273.0,160055.0,9698.0
1680103394389608,117234.0,160033.0,9691.0
1680103394399608,117190.0,160043.0,9687.0
1680103394410607,117185.0,159959.0,9633.0
1680103394420607,117138.0,159923.0,9671.0
1680103394429607,117104.0,159879.0,9661.0
1680103394440607,117066.0,159868.0,9656.0
1680103394449607,116985.0,159838.0,9638.0
1680103394460607,117035.0,159777.0,9618.0
1680103394470607,117018.0,159819.0,9640.0
1680103394480607,117004.0,159865.0,9612.0
1680103394491607,117006.0,159822.0,9617.0
1680103394500607,116974.0,159757.0,9610.0
1680103394509607,116959.0,159761.0,9610.0
1680103394519607,116937.0,159802.0,9622.0
1680103394529607,116985.0,159780.0,9588.0
1680103394540608,116968.0,159785.0,9619.0
1680103394549608,116983.0,159802.0,9613.0
1680103394559608,116989.0,159816.0,9599.0
1680103394570608,117010.0,159800.0,9618.0
1680103394580608,117035.0,159793.0,9630.0
1680103394589608,117046.0,159844.0,9633.0
1680103394599608,117057.0,159824.0,9636.0
1680103394610607,117080.0,159916.0,9603.0
1680103394620607,117068.0,159896.0,9634.0
1680103394630607,117069.0,159957.0,9637.0
1680103394641607,117096.0,159900.0,9639.0
1680103394649607,117091.0,159875.0,9640.0
1680103394660607,117072.0,159923.0,9651.0
1680103394670607,117099.0,159899.0,9641.0
1680103394679607,117079.0,159861.0,9650.0
1680103394690607,117066.0,159837.0,9648.0
1680103394699607,117051.0,159882.0,9619.0
1680103394710607,117033.0,159861.0,9602.0
1680103394719608,117026.0,159849.0,9620.0
1680103394729608,116999.0,159788.0,9629.0
1680103394740608,116982.0,159804.0,9624.0
1680103394749608,116977.0,159820.0,9613.0
1680103394759608,116974.0,159791.0,9582.0
1680103394769608,116948.0,159769.0,9624.0
1680103394779608,116926.0,159762.0,9590.0
1680103394790608,116932.0,159712.0,9612.0
1680103394799608,116916.0,159754.0,9589.0
1680103394809608,116899.0,159693.0,9588.0
1680103394820608,116877.0,159719.0,9585.0
1680103394830608,116867.0,159745.0,9584.0
1680103394839608,116821.0,159702.0,9578.0
1680103394850607,116842.0,159712.0,9582.0
1680103394860607,116812.0,159656.0,9578.0
1680103394871607,116822.0,159639.0,9576.0
1680103394881607,116795.0,159661.0,9617.0
1680103394889607,116799.0,159645.0,9593.0
1680103394899608,116806.0,159630.0,9593.0
1680103394910607,116802.0,159632.0,9590.0
1680103394920607,116803.0,159671.0,9589.0
1680103394929607,116810.0,159659.0,9594.0
1680103394940607,116795.0,159670.0,9585.0
1680103394949607,116826.0,159643.0,9596.0
1680103394960607,116814.0,159657.0,9589.0
1680103394969607,116802.0,159682.0,9591.0
1680103394979607,116848.0,159682.0,9573.0
1680103394990607,116851.0,159659.0,9573.0
1680103394999607,116852.0,159625.0,9594.0
1680103395009607,116856.0,159689.0,9589.0
1680103395020607,116848.0,159695.0,9591.0
1680103395029607,116848.0,159706.0,9599.0
1680103395040607,116883.0,159697.0,9599.0
1680103395048607,116951.0,159737.0,9606.0
1680103395059607,116901.0,159764.0,9552.0
1680103395070607,116979.0,159818.0,9608.0
1680103395080608,117044.0,159939.0,9643.0
1680103395090608,117093.0,159895.0,9653.0
1680103395101607,117171.0,159949.0,9671.0
1680103395111607,117247.0,160112.0,9718.0
1680103395119607,117291.0,160154.0,9706.0
1680103395129607,117348.0,160215.0,9700.0
1680103395139607,117366.0,160254.0,9732.0
1680103395149607,117446.0,160277.0,9721.0
1680103395159607,117455.0,160236.0,9738.0
1680103395170607,117466.0,160275.0,9714.0
1680103395179607,117445.0,160222.0,9716.0
1680103395189607,117459.0,160269.0,9722.0
1680103395200607,117406.0,160244.0,9687.0
1680103395211607,117327.0,160202.0,9703.0
1680103395219607,117370.0,160186.0,9700.0
1680103395229607,117336.0,160124.0,9700.0
1680103395239607,117309.0,160137.0,9691.0
1680103395250607,117298.0,160113.0,9655.0
1680103395259608,117272.0,160092.0,9640.0
1680103395269608,117251.0,160056.0,9678.0
1680103395280608,117226.0,160034.0,9671.0
1680103395289608,117224.0,160021.0,9667.0
1680103395299608,117241.0,160045.0,9670.0
1680103395309608,117281.0,160083.0,9676.0
1680103395319608,117328.0,160157.0,9647.0
1680103395330608,117377.0,160223.0,9693.0
1680103395340608,117489.0,160341.0,9719.0
1680103395351607,117591.0,160394.0,9763.0
1680103395359607,117688.0,160517.0,9775.0
1680103395369607,117837.0,160622.0,9750.0
1680103395379607,117951.0,160716.0,9819.0
1680103395389607,118068.0,160808.0,9841.0
1680103395399607,118164.0,160864.0,9868.0
1680103395410607,118310.0,160927.0,9862.0
1680103395419607,118380.0,160968.0,9891.0
1680103395429607,118393.0,160987.0,9891.0
1680103395439608,118428.0,161041.0,9897.0
1680103395449608,118423.0,160955.0,9879.0
1680103395459608,118360.0,160912.0,9847.0
1680103395470608,118138.0,160772.0,9823.0
1680103395480608,117937.0,160573.0,9789.0
1680103395491608,117681.0,160343.0,9727.0
1680103395502607,117340.0,160060.0,9645.0
1680103395509607,116939.0,159638.0,9549.0
1680103395519607,116523.0,159322.0,9445.0
1680103395529607,116131.0,158893.0,9353.0
1680103395540607,115673.0,158528.0,9219.0
1680103395549607,115050.0,157944.0,9047.0
1680103395559607,114618.0,157533.0,8962.0
1680103395569607,115219.0,157681.0,8981.0
1680103395579607,115065.0,157557.0,8903.0
1680103395589607,114880.0,157251.0,8801.0
1680103395599607,114916.0,157335.0,8858.0
1680103395609607,115213.0,157650.0,8906.0
1680103395619608,115328.0,157704.0,8898.0
1680103395629608,115262.0,157678.0,8879.0
1680103395641608,115026.0,157392.0,8819.0
1680103395651608,114761.0,157083.0,8779.0
1680103395659608,114672.0,156967.0,8769.0
1680103395670607,114734.0,157101.0,8812.0
1680103395678607,114845.0,157199.0,8856.0
1680103395689607,114905.0,157284.0,8892.0
1680103395700607,115057.0,157361.0,8896.0
1680103395709607,115098.0,157375.0,8923.0
1680103395719607,115188.0,157588.0,8937.0
1680103395729607,115313.0,157764.0,8951.0
1680103395739607,115421.0,157930.0,8979.0
1680103395750607,115479.0,158052.0,9025.0
1680103395759607,115451.0,158059.0,9013.0
1680103395770607,115365.0,158079.0,8981.0
1680103395781607,115223.0,157985.0,8966.0
1680103395789607,115241.0,158032.0,8991.0
1680103395799608,115226.0,158100.0,8987.0
1680103395809608,115235.0,158140.0,9008.0
1680103395819608,115287.0,158223.0,9034.0
1680103395829608,115394.0,158334.0,9000.0
1680103395839608,115440.0,158373.0,8988.0
1680103395848608,115427.0,158386.0,9049.0
1680103395859608,115441.0,158426.0,9028.0
1680103395869608,115513.0,158478.0,9075.0
1680103395879608,115599.0,158591.0,9089.0
1680103395889608,115673.0,158614.0,9109.0
1680103395899608,115779.0,158714.0,9107.0
1680103395909608,115689.0,158638.0,9052.0
1680103395920607,115667.0,158551.0,9075.0
1680103395928607,115695.0,158591.0,9087.0
1680103395939607,115771.0,158587.0,9115.0
1680103395950607,115795.0,158578.0,9131.0
1680103395959607,115841.0,158553.0,9103.0
1680103395969607,115690.0,158402.0,9062.0
1680103395979608,115500.0,158189.0,9000.0
1680103395989608,115275.0,158018.0,8974.0
1680103395999608,115146.0,157869.0,8938.0
1680103396008608,115085.0,157779.0,8897.0
1680103396019608,115004.0,157685.0,8909.0
1680103396029608,114986.0,157751.0,8904.0
1680103396040608,114901.0,157686.0,8894.0
1680103396048607,114824.0,157575.0,8857.0
1680103396059607,114725.0,157556.0,8816.0
1680103396070607,114740.0,157586.0,8859.0
1680103396081607,114787.0,157618.0,8874.0
1680103396089607,114772.0,157594.0,8916.0
1680103396098607,114718.0,157605.0,8874.0
1680103396109607,114771.0,157598.0,8864.0
1680103396120607,114774.0,157577.0,8884.0
1680103396129607,114809.0,157607.0,8903.0
1680103396139607,114830.0,157735.0,8905.0
1680103396149607,114821.0,157715.0,8864.0
1680103396159608,114783.0,157639.0,8883.0
1680103396170607,114709.0,157570.0,8877.0
1680103396179607,114600.0,157512.0,8851.0
1680103396189607,114616.0,157510.0,8866.0
1680103396199607,114652.0,157514.0,8854.0
1680103396210607,114639.0,157547.0,8817.0
1680103396220607,114672.0,157603.0,8850.0
1680103396231607,114672.0,157602.0,8891.0
1680103396240607,114653.0,157565.0,8847.0
1680103396251607,114646.0,157585.0,8903.0
1680103396259607,114785.0,157688.0,8918.0
1680103396268607,114868.0,157717.0,8912.0
1680103396279607,114892.0,157764.0,8931.0
1680103396290607,114971.0,157750.0,8937.0
1680103396298607,115023.0,157738.0,8962.0
1680103396309607,115080.0,157804.0,8992.0
1680103396319607,115171.0,157853.0,9005.0
1680103396329607,115216.0,157920.0,9012.0
1680103396339608,115222.0,157830.0,9005.0
1680103396348608,115179.0,157879.0,9002.0
1680103396359608,115093.0,157830.0,8932.0
1680103396370607,114940.0,157659.0,8925.0
1680103396379608,114838.0,157598.0,8910.0
1680103396388608,114832.0,157603.0,8939.0
1680103396399608,114826.0,157648.0,8949.0
1680103396409608,114808.0,157602.0,8913.0
1680103396419608,114640.0,157371.0,8816.0
1680103396429607,114289.0,157122.0,8680.0
1680103396439607,113834.0,156651.0,8504.0
1680103396449607,113285.0,156098.0,8376.0
1680103396459607,112814.0,155660.0,8268.0
1680103396468608,112479.0,155493.0,8244.0
1680103396479607,112288.0,155132.0,8134.0
1680103396489607,112138.0,154914.0,8173.0
1680103396499607,112258.0,154977.0,8232.0
1680103396509607,112683.0,155426.0,8394.0
1680103396519608,113318.0,156133.0,8583.0
1680103396530608,114031.0,156897.0,8793.0
1680103396541607,114721.0,157506.0,8994.0
1680103396548607,115366.0,158108.0,9203.0
1680103396559607,115995.0,158579.0,9268.0
1680103396569607,116286.0,158805.0,9362.0
1680103396579607,116277.0,158775.0,9334.0
1680103396588607,116170.0,158764.0,9297.0
1680103396599607,115939.0,158598.0,9230.0
1680103396609607,115608.0,158303.0,9111.0
1680103396619607,115212.0,157920.0,9012.0
1680103396629607,114896.0,157657.0,8902.0
1680103396638607,114629.0,157396.0,8799.0
1680103396649607,114408.0,157032.0,8609.0
1680103396659607,114031.0,156720.0,8516.0
1680103396669607,113506.0,156123.0,8355.0
1680103396679607,112922.0,155610.0,8234.0
1680103396689607,112651.0,155287.0,8192.0
1680103396700608,112310.0,154890.0,8188.0
1680103396711608,112328.0,154817.0,8268.0
1680103396718608,112746.0,155251.0,8432.0
1680103396729607,113349.0,155869.0,8612.0
1680103396738608,114041.0,156609.0,8815.0
1680103396749607,114908.0,157429.0,9023.0
1680103396759607,115683.0,158110.0,9260.0
1680103396768607,116121.0,158425.0,9363.0
1680103396779607,116277.0,158549.0,9375.0
1680103396789607,116265.0,158479.0,9373.0
1680103396798607,116296.0,158430.0,9373.0
1680103396809607,116455.0,158584.0,9443.0
1680103396820607,116748.0,158856.0,9488.0
1680103396831607,117020.0,159004.0,9533.0
1680103396838607,117077.0,158756.0,9439.0
1680103396848607,117140.0,158768.0,9392.0
1680103396859607,117237.0,158926.0,9384.0
1680103396869607,116844.0,158782.0,9181.0
1680103396879608,116166.0,158644.0,8984.0
1680103396888608,115533.0,158273.0,8800.0
1680103396899608,115078.0,157967.0,8709.0
1680103396908608,114547.0,157540.0,8613.0
1680103396919608,114106.0,156844.0,8486.0
1680103396928608,113592.0,156306.0,8460.0
1680103396939607,113415.0,156157.0,8460.0
1680103396949607,113700.0,156425.0,8629.0
1680103396960607,114329.0,157074.0,8875.0
1680103396969607,115120.0,157671.0,9130.0
1680103396978608,115868.0,158350.0,9361.0
1680103396989607,116439.0,158720.0,9415.0
1680103396999607,116739.0,158926.0,9509.0
1680103397008607,116811.0,158927.0,9506.0
1680103397019607,116861.0,158932.0,9498.0
1680103397029607,117092.0,159084.0,9539.0
1680103397039607,117172.0,159111.0,9538.0
1680103397048607,117235.0,159267.0,9479.0
1680103397059608,116997.0,159027.0,9302.0
1680103397070608,116598.0,158831.0,9183.0
1680103397080608,116322.0,158637.0,9031.0
1680103397090608,115774.0,158240.0,8828.0
1680103397099608,115078.0,157640.0,8618.0
1680103397108608,114121.0,156820.0,8354.0
1680103397119608,113462.0,156204.0,8195.0
1680103397129608,112812.0,155539.0,8085.0
1680103397138608,112451.0,155009.0,7999.0
1680103397149608,111986.0,154219.0,7940.0
1680103397158608,111585.0,153856.0,7979.0
1680103397169608,111822.0,154228.0,8116.0
1680103397179607,112539.0,155063.0,8421.0
1680103397188608,113569.0,156185.0,8804.0
1680103397199607,114778.0,157413.0,9120.0
1680103397209607,115747.0,158197.0,9374.0
1680103397220607,116547.0,158844.0,9539.0
1680103397231607,117003.0,159089.0,9627.0
1680103397239608,117313.0,159276.0,9651.0
1680103397249608,117668.0,159601.0,9704.0
1680103397258608,117986.0,159735.0,9725.0
1680103397269608,117875.0,159624.0,9624.0
1680103397278608,117275.0,159272.0,9451.0
1680103397289608,116722.0,158918.0,9217.0
1680103397298608,116213.0,158597.0,9099.0
1680103397308608,115830.0,158526.0,8978.0
1680103397319608,115506.0,158226.0,8820.0
1680103397329608,115044.0,157781.0,8654.0
1680103397338608,114429.0,157364.0,8524.0
1680103397349608,114010.0,156997.0,8428.0
1680103397359608,113587.0,156703.0,8356.0
1680103397370607,113309.0,156409.0,8331.0
1680103397380607,113191.0,156142.0,8318.0
1680103397388607,113107.0,155930.0,8376.0
1680103397398607,113133.0,155978.0,8419.0
1680103397409607,113419.0,156217.0,8513.0
1680103397419608,113828.0,156576.0,8658.0
1680103397428608,114393.0,157222.0,8857.0
1680103397439608,115053.0,157854.0,9065.0
1680103397449608,115700.0,158355.0,9214.0
1680103397459608,116171.0,158692.0,9361.0
1680103397469608,116570.0,158983.0,9477.0
1680103397478608,117234.0,159374.0,9631.0
1680103397489608,118137.0,159675.0,9826.0
1680103397499608,118979.0,160036.0,9937.0
1680103397510608,119318.0,160171.0,9959.0
1680103397519608,119175.0,159999.0,9870.0
1680103397528608,118423.0,159571.0,9575.0
1680103397539608,117140.0,158965.0,9172.0
1680103397549608,115883.0,158262.0,8829.0
1680103397558608,114918.0,157404.0,8524.0
1680103397569608,113899.0,156591.0,8300.0
1680103397578608,113149.0,155991.0,8128.0
1680103397588608,112767.0,155667.0,8029.0
1680103397599608,112194.0,154846.0,7918.0
1680103397608608,111726.0,154126.0,7829.0
1680103397618608,111226.0,153511.0,7807.0
1680103397629608,110939.0,153255.0,7796.0
1680103397640607,111217.0,153820.0,8027.0
1680103397650607,112189.0,154905.0,8349.0
1680103397661607,113276.0,156087.0,8682.0
1680103397669607,114337.0,157121.0,8986.0
1680103397678607,115320.0,158062.0,9267.0
1680103397689607,115954.0,158457.0,9355.0
1680103397698607,116332.0,158675.0,9437.0
1680103397709607,116852.0,159074.0,9537.0
1680103397718607,117654.0,159467.0,9701.0
1680103397728607,118361.0,159719.0,9774.0
1680103397739607,118610.0,159734.0,9787.0
1680103397749607,118392.0,159570.0,9675.0
1680103397758607,117916.0,159266.0,9519.0
1680103397769607,117351.0,158971.0,9349.0
1680103397778608,116916.0,158806.0,9222.0
1680103397789608,116382.0,158651.0,9030.0
1680103397799608,115662.0,158181.0,8865.0
1680103397810608,114953.0,157569.0,8685.0
1680103397818607,114382.0,157140.0,8566.0
1680103397829607,113947.0,156813.0,8495.0
1680103397838607,113671.0,156584.0,8458.0
1680103397848607,113687.0,156533.0,8458.0
1680103397859607,113606.0,156386.0,8516.0
1680103397868607,113712.0,156458.0,8583.0
1680103397879607,113965.0,156735.0,8695.0
1680103397888607,114462.0,157213.0,8813.0
1680103397898607,115073.0,157705.0,8962.0
1680103397909607,115696.0,158276.0,9120.0
1680103397919607,116356.0,158842.0,9238.0
1680103397930607,116743.0,159223.0,9371.0
1680103397939607,117011.0,159289.0,9449.0
1680103397948607,117197.0,159343.0,9476.0
1680103397959608,117369.0,159444.0,9531.0
1680103397968608,117556.0,159500.0,9580.0
1680103397978608,117698.0,159574.0,9577.0
1680103397988608,117593.0,159464.0,9515.0
1680103397999608,117441.0,159293.0,9434.0
1680103398008608,117358.0,159210.0,9429.0
1680103398018608,117359.0,159208.0,9408.0
1680103398029608,117244.0,159124.0,9305.0
1680103398038608,116864.0,158984.0,9139.0
1680103398048608,115977.0,158485.0,8815.0
1680103398059608,115107.0,157746.0,8601.0
1680103398070608,114173.0,156930.0,8416.0
1680103398081607,113461.0,156384.0,8294.0
1680103398088607,112948.0,156084.0,8230.0
1680103398098607,112536.0,155517.0,8136.0
1680103398109607,112506.0,155279.0,8143.0
1680103398118607,112541.0,155184.0,8268.0
1680103398129607,113151.0,155971.0,8518.0
1680103398138608,114251.0,157093.0,8835.0
1680103398148608,115524.0,158149.0,9128.0
1680103398159608,116790.0,158832.0,9508.0
1680103398169608,118155.0,159567.0,9814.0
1680103398178608,119060.0,160046.0,9969.0
1680103398188608,119515.0,160213.0,10017.0
1680103398199607,119685.0,160209.0,10004.0
1680103398209607,119544.0,160123.0,9904.0
1680103398219607,119167.0,159866.0,9807.0
1680103398230607,118656.0,159527.0,9660.0
1680103398238607,117929.0,159069.0,9473.0
1680103398249607,117172.0,158697.0,9265.0
1680103398258607,116489.0,158277.0,9036.0
1680103398268607,115858.0,157946.0,8910.0
1680103398279607,115333.0,157625.0,8784.0
1680103398288607,114778.0,157237.0,8677.0
1680103398298607,114390.0,156862.0,8568.0
1680103398308607,114017.0,156500.0,8508.0
1680103398318608,113846.0,156404.0,8471.0
1680103398329608,113726.0,156398.0,8412.0
1680103398338608,113660.0,156339.0,8443.0
1680103398350608,113581.0,156219.0,8440.0
1680103398358608,113491.0,156166.0,8436.0
1680103398369608,113539.0,156202.0,8402.0
1680103398378608,113603.0,156260.0,8458.0
1680103398388608,113761.0,156409.0,8504.0
1680103398399608,114058.0,156695.0,8602.0
1680103398408608,114344.0,156894.0,8665.0
1680103398419608,114536.0,157143.0,8726.0
1680103398428608,114737.0,157250.0,8730.0
1680103398438608,114779.0,157255.0,8730.0
1680103398449607,114740.0,157246.0,8706.0
1680103398459607,114624.0,157112.0,8664.0
1680103398468608,114435.0,156965.0,8618.0
1680103398478608,114211.0,156774.0,8561.0
1680103398489607,113874.0,156419.0,8477.0
1680103398500608,113284.0,155894.0,8325.0
1680103398506608,112504.0,155034.0,8148.0
1680103398517608,111766.0,154363.0,8003.0
1680103398528607,111336.0,153951.0,7958.0
1680103398537608,111343.0,154151.0,8021.0
1680103398547608,111641.0,154505.0,8086.0
1680103398557608,111868.0,154725.0,8159.0
1680103398567608,112369.0,155257.0,8238.0
1680103398578607,112964.0,155834.0,8419.0
1680103398586607,113380.0,156196.0,8492.0
1680103398597607,113712.0,156430.0,8552.0
1680103398608607,113949.0,156637.0,8588.0
1680103398617607,114107.0,156761.0,8627.0
1680103398628607,114173.0,156826.0,8602.0
1680103398637607,114194.0,156852.0,8624.0
1680103398647607,114211.0,156938.0,8651.0
1680103398658607,114374.0,157065.0,8656.0
1680103398668607,114484.0,157134.0,8722.0
1680103398678608,114587.0,157257.0,8755.0
1680103398688608,114669.0,157299.0,8766.0
1680103398699607,114581.0,157244.0,8727.0
1680103398708608,114341.0,156985.0,8668.0
1680103398718608,114198.0,156881.0,8652.0
1680103398728608,114144.0,156866.0,8630.0
1680103398738608,114127.0,156873.0,8606.0
1680103398749607,114071.0,156834.0,8632.0
1680103398758607,114103.0,156880.0,8646.0
1680103398768607,114120.0,156801.0,8658.0
1680103398778607,114119.0,156827.0,8632.0
1680103398788607,114084.0,156764.0,8615.0
1680103398798607,114069.0,156703.0,8611.0
1680103398808607,113998.0,156583.0,8576.0
1680103398818607,113876.0,156522.0,8563.0
1680103398829607,113844.0,156431.0,8521.0
1680103398837607,113769.0,156287.0,8517.0
1680103398848607,113642.0,156132.0,8479.0
1680103398859608,113464.0,155973.0,8442.0
1680103398869608,113300.0,155837.0,8419.0
1680103398879608,113228.0,155739.0,8419.0
1680103398888608,113186.0,155667.0,8416.0
1680103398898608,113006.0,155430.0,8385.0
1680103398908608,112768.0,155300.0,8339.0
1680103398919608,112717.0,155225.0,8364.0
1680103398927607,112890.0,155464.0,8428.0
1680103398938607,113036.0,155600.0,8456.0
1680103398949607,113300.0,155781.0,8516.0
1680103398958607,113602.0,155988.0,8578.0
1680103398968607,113943.0,156382.0,8673.0
1680103398978607,114421.0,156711.0,8757.0
1680103398988607,114762.0,157026.0,8858.0
1680103398999607,115162.0,157131.0,8906.0
1680103399009607,115380.0,157235.0,8968.0
1680103399020607,115423.0,157271.0,9016.0
1680103399030607,115347.0,157149.0,8929.0
1680103399040608,115074.0,157001.0,8865.0
1680103399048607,114824.0,156853.0,8844.0
1680103399058607,114668.0,156748.0,8799.0
1680103399068607,114455.0,156622.0,8741.0
1680103399078607,114106.0,156467.0,8671.0
1680103399088607,113916.0,156304.0,8584.0
1680103399098607,113786.0,156247.0,8581.0
1680103399108607,113662.0,156125.0,8542.0
1680103399119607,113496.0,155997.0,8482.0
1680103399128607,113314.0,155865.0,8458.0
1680103399138607,113277.0,155818.0,8437.0
1680103399148607,113199.0,155728.0,8410.0
1680103399159607,113187.0,155660.0,8416.0
1680103399170607,113227.0,155600.0,8441.0
1680103399177607,113351.0,155676.0,8489.0
1680103399188607,113454.0,155705.0,8512.0
1680103399198607,113480.0,155683.0,8520.0
1680103399208607,113433.0,155550.0,8497.0
1680103399218608,113363.0,155528.0,8493.0
1680103399228608,113293.0,155541.0,8479.0
1680103399238608,113260.0,155513.0,8461.0
1680103399249607,113155.0,155458.0,8410.0
1680103399257607,112995.0,155341.0,8381.0
1680103399268607,112874.0,155238.0,8352.0
1680103399278607,112751.0,155162.0,8319.0
1680103399288607,112562.0,155052.0,8252.0
1680103399298607,112406.0,154905.0,8229.0
1680103399309607,112201.0,154789.0,8198.0
1680103399319607,112143.0,154651.0,8177.0
1680103399330607,112088.0,154593.0,8169.0
1680103399339607,112081.0,154607.0,8206.0
1680103399347607,112038.0,154639.0,8168.0
1680103399358607,112064.0,154624.0,8140.0
1680103399368607,112112.0,154673.0,8205.0
1680103399378607,112194.0,154790.0,8214.0
1680103399388607,112290.0,154899.0,8261.0
1680103399398608,112406.0,155073.0,8278.0
1680103399408608,112567.0,155182.0,8280.0
1680103399418608,112671.0,155278.0,8320.0
1680103399428608,112751.0,155336.0,8318.0
1680103399438608,112801.0,155390.0,8369.0
1680103399448608,112824.0,155420.0,8388.0
1680103399459607,112951.0,155474.0,8403.0
1680103399468608,112992.0,155422.0,8404.0
1680103399479607,112992.0,155462.0,8407.0
1680103399488608,112984.0,155437.0,8408.0
1680103399498607,113022.0,155377.0,8379.0
1680103399508607,112971.0,155307.0,8408.0
1680103399518607,112943.0,155298.0,8397.0
1680103399528607,112899.0,155286.0,8393.0
1680103399538607,112765.0,155198.0,8373.0
1680103399547608,112747.0,155063.0,8334.0
1680103399558607,112672.0,154947.0,8324.0
1680103399568607,112637.0,154959.0,8320.0
1680103399578608,112617.0,154869.0,8277.0
1680103399588608,112564.0,154868.0,8305.0
1680103399599608,112550.0,154834.0,8301.0
1680103399610607,112517.0,154822.0,8317.0
1680103399618607,112504.0,154818.0,8306.0
1680103399628607,112448.0,154856.0,8294.0
1680103399637607,112437.0,154836.0,8293.0
1680103399648607,112547.0,154878.0,8286.0
1680103399658607,112567.0,154869.0,8306.0
1680103399668607,112590.0,154928.0,8305.0
1680103399677607,112608.0,154944.0,8293.0
1680103399688607,112589.0,154922.0,8319.0
1680103399698607,112574.0,154860.0,8314.0
1680103399708607,112512.0,154874.0,8300.0
1680103399717607,112521.0,154836.0,8295.0
1680103399728607,112476.0,154838.0,8283.0
1680103399738607,112482.0,154810.0,8279.0
1680103399749607,112436.0,154794.0,8265.0
1680103399758608,112404.0,154716.0,8270.0
1680103399767608,112385.0,154712.0,8277.0
1680103399778608,112378.0,154713.0,8274.0
1680103399788608,112359.0,154690.0,8270.0
1680103399797608,112353.0,154632.0,8251.0
1680103399808608,112269.0,154507.0,8239.0
1680103399818608,112151.0,154459.0,8218.0
1680103399828608,112059.0,154401.0,8210.0
1680103399838608,112081.0,154361.0,8195.0
1680103399847608,112050.0,154333.0,8196.0
1680103399858608,112099.0,154400.0,8160.0
1680103399868608,112085.0,154353.0,8187.0
1680103399879608,112020.0,154313.0,8182.0
1680103399890607,111978.0,154191.0,8158.0
1680103399898607,111925.0,154100.0,8165.0
1680103399908607,111881.0,154088.0,8160.0
1680103399918607,111826.0,154094.0,8154.0
1680103399927607,111879.0,154095.0,8134.0
1680103399938608,111866.0,154036.0,8143.0
1680103399948608,111831.0,154056.0,8134.0
1680103399958608,111783.0,154039.0,8129.0
1680103399967608,111778.0,153955.0,8144.0
1680103399978608,111734.0,153980.0,8138.0
1680103399987608,111782.0,153949.0,8120.0
1680103399998607,111733.0,153919.0,8081.0
1680103400008607,111709.0,153881.0,8123.0
1680103400017608,111693.0,153816.0,8102.0
1680103400028607,111681.0,153818.0,8073.0
1680103400038607,111675.0,153817.0,8099.0
1680103400048607,111683.0,153829.0,8097.0
1680103400059607,111611.0,153738.0,8086.0
1680103400069607,111651.0,153786.0,8100.0
1680103400080607,111707.0,153900.0,8162.0
1680103400087607,111849.0,154088.0,8146.0
1680103400097607,112062.0,154277.0,8168.0
1680103400108607,112213.0,154447.0,8245.0
1680103400118608,112343.0,154615.0,8266.0
1680103400128608,112485.0,154728.0,8303.0
1680103400137608,112563.0,154797.0,8313.0
1680103400148608,112570.0,154810.0,8308.0
1680103400158608,112500.0,154719.0,8288.0
1680103400168608,112474.0,154703.0,8278.0
1680103400177608,112496.0,154699.0,8288.0
1680103400187608,112432.0,154673.0,8258.0
1680103400198608,112410.0,154639.0,8232.0
1680103400209607,112359.0,154625.0,8241.0
1680103400219607,112241.0,154492.0,8214.0
1680103400230607,112175.0,154384.0,8197.0
1680103400238607,112215.0,154371.0,8212.0
1680103400248607,112174.0,154280.0,8205.0
1680103400257607,112050.0,154220.0,8184.0
1680103400268607,111982.0,154141.0,8177.0
1680103400278607,111983.0,154059.0,8147.0
1680103400288607,111953.0,154008.0,8156.0
1680103400297608,111932.0,154052.0,8150.0
1680103400307608,111833.0,153943.0,8134.0
1680103400318607,111764.0,153846.0,8088.0
1680103400328607,111779.0,153835.0,8095.0
1680103400338607,111649.0,153853.0,8080.0
1680103400350607,111613.0,153725.0,8059.0
1680103400357607,111503.0,153619.0,8040.0
1680103400368607,111407.0,153518.0,8020.0
1680103400378607,111292.0,153458.0,8014.0
1680103400387607,111271.0,153423.0,7986.0
1680103400398607,111278.0,153439.0,7985.0
1680103400408607,111330.0,153465.0,8005.0
1680103400418607,111306.0,153440.0,8021.0
1680103400427607,111303.0,153431.0,8011.0
1680103400438607,111283.0,153445.0,8006.0
1680103400447607,111319.0,153517.0,8026.0
1680103400458607,111393.0,153526.0,8015.0
1680103400468607,111384.0,153526.0,8034.0
1680103400477608,111355.0,153464.0,8007.0
1680103400488608,111420.0,153567.0,8046.0
1680103400498607,111550.0,153652.0,8076.0
1680103400507608,111652.0,153710.0,8103.0
1680103400518607,111707.0,153766.0,8109.0
1680103400528607,111729.0,153840.0,8126.0
1680103400539607,111688.0,153664.0,8100.0
1680103400549607,111601.0,153560.0,8086.0
1680103400559607,111670.0,153641.0,8182.0
1680103400567607,112412.0,154265.0,8396.0
1680103400578607,113351.0,154758.0,8428.0
1680103400587607,112579.0,154326.0,8131.0
1680103400597607,111954.0,154205.0,8110.0
1680103400608607,112536.0,154969.0,8399.0
1680103400618607,113686.0,155425.0,8652.0
1680103400628607,114397.0,155685.0,8778.0
1680103400637607,114766.0,155752.0,8862.0
1680103400648607,115436.0,156026.0,8976.0
1680103400658608,115974.0,156246.0,9103.0
1680103400668608,116380.0,156344.0,9164.0
1680103400679607,116891.0,156533.0,9322.0
1680103400688608,117494.0,156648.0,9467.0
1680103400697608,118008.0,156710.0,9539.0
1680103400708608,118511.0,156810.0,9622.0
1680103400718608,119403.0,157181.0,9768.0
1680103400727608,119945.0,157413.0,9839.0
1680103400738608,120507.0,157927.0,9923.0
1680103400747608,120844.0,159153.0,9883.0
1680103400757608,120844.0,160852.0,9782.0
1680103400768607,121541.0,162696.0,9938.0
1680103400777608,123298.0,164293.0,10285.0
1680103400788607,124883.0,165355.0,10549.0
1680103400798607,125778.0,166058.0,10741.0
1680103400809607,126088.0,166579.0,10854.0
1680103400820607,126489.0,166871.0,10937.0
1680103400830607,126549.0,167042.0,11033.0
1680103400839608,126700.0,167146.0,11093.0
1680103400847607,126873.0,167196.0,11131.0
1680103400858607,126941.0,167245.0,11150.0
1680103400868607,127048.0,167291.0,11169.0
1680103400878607,127096.0,167251.0,11181.0
1680103400887607,127143.0,167326.0,11212.0
1680103400897607,127216.0,167380.0,11246.0
1680103400908607,127302.0,167384.0,11247.0
1680103400918607,127214.0,167398.0,11268.0
1680103400927607,127143.0,167463.0,11263.0
1680103400938607,126966.0,167528.0,11240.0
1680103400949607,126829.0,167571.0,11239.0
1680103400960607,126761.0,167529.0,11233.0
1680103400967607,126660.0,167479.0,11221.0
1680103400977607,126512.0,167501.0,11181.0
1680103400987607,126350.0,167457.0,11162.0
1680103400998607,126258.0,167392.0,11111.0
1680103401007607,126135.0,167329.0,11126.0
1680103401017608,126076.0,167295.0,11116.0
1680103401028607,125992.0,167300.0,11118.0
1680103401037608,125917.0,167277.0,11107.0
1680103401047608,125933.0,167241.0,11118.0
1680103401058607,125868.0,167279.0,11091.0
1680103401068607,125850.0,167282.0,11105.0
1680103401079607,125782.0,167220.0,11109.0
1680103401088607,125728.0,167167.0,11093.0
1680103401097607,125644.0,167148.0,11128.0
1680103401107607,125599.0,167150.0,11110.0
1680103401118607,125558.0,167123.0,11086.0
1680103401128607,125519.0,167136.0,11103.0
1680103401137607,125456.0,167032.0,11091.0
1680103401147607,125410.0,167144.0,11099.0
1680103401157607,125365.0,167092.0,11102.0
1680103401168607,125317.0,167061.0,11111.0
1680103401177607,125210.0,166979.0,11102.0
1680103401187607,125242.0,166894.0,11097.0
1680103401198608,125197.0,166808.0,11110.0
1680103401207608,125130.0,166824.0,11128.0
1680103401217608,125193.0,166751.0,11146.0
1680103401227608,125227.0,166655.0,11163.0
1680103401237608,125221.0,166555.0,11170.0
1680103401248607,125245.0,166518.0,11149.0
1680103401259607,125223.0,166480.0,11183.0
1680103401269607,125254.0,166367.0,11211.0
1680103401277607,125238.0,166248.0,11197.0
1680103401288607,125234.0,166112.0,11220.0
1680103401296607,125156.0,166084.0,11235.0
1680103401307607,125168.0,166035.0,11205.0
1680103401318607,125106.0,165979.0,11237.0
1680103401327607,125082.0,165967.0,11232.0
1680103401337607,125031.0,165938.0,11239.0
1680103401347607,125016.0,165889.0,11220.0
1680103401357607,124955.0,165820.0,11225.0
1680103401368607,124889.0,165841.0,11203.0
1680103401378608,124860.0,165854.0,11194.0
1680103401389608,124771.0,165864.0,11194.0
1680103401397607,124724.0,165820.0,11187.0
1680103401407607,124638.0,165816.0,11191.0
1680103401418607,124660.0,165807.0,11171.0
1680103401427607,124620.0,165754.0,11174.0
1680103401437607,124592.0,165793.0,11175.0
1680103401447607,124583.0,165673.0,11166.0
1680103401458607,124532.0,165732.0,11177.0
1680103401467607,124554.0,165723.0,11147.0
1680103401477607,124552.0,165641.0,11183.0
1680103401488607,124575.0,165721.0,11193.0
1680103401497607,124649.0,165713.0,11194.0
1680103401507607,124630.0,165711.0,11178.0
1680103401518607,124682.0,165705.0,11226.0
1680103401528607,124663.0,165719.0,11247.0
1680103401539607,124793.0,165689.0,11247.0
1680103401549607,124848.0,165670.0,11260.0
1680103401557608,124812.0,165699.0,11282.0
1680103401567608,124922.0,165647.0,11269.0
1680103401577607,124913.0,165642.0,11285.0
1680103401587607,124892.0,165640.0,11274.0
1680103401597607,124849.0,165579.0,11259.0
1680103401607607,124820.0,165615.0,11265.0
1680103401617607,124767.0,165591.0,11231.0
1680103401628607,124706.0,165557.0,11240.0
1680103401637607,124599.0,165551.0,11222.0
1680103401647607,124589.0,165558.0,11209.0
1680103401658607,124512.0,165532.0,11189.0
1680103401669607,124425.0,165541.0,11183.0
1680103401677607,124409.0,165472.0,11184.0
1680103401687607,124356.0,165426.0,11176.0
1680103401698607,124291.0,165470.0,11153.0
1680103401707607,124225.0,165454.0,11141.0
1680103401717607,124198.0,165446.0,11112.0
1680103401727607,124141.0,165392.0,11130.0
1680103401737608,124064.0,165339.0,11115.0
1680103401748607,124067.0,165384.0,11107.0
1680103401756607,124040.0,165357.0,11117.0
1680103401767607,123998.0,165351.0,11063.0
1680103401778607,123944.0,165359.0,11096.0
1680103401788607,124003.0,165364.0,11096.0
1680103401797607,123969.0,165289.0,11097.0
1680103401809607,123925.0,165319.0,11103.0
1680103401819607,123968.0,165280.0,11122.0
1680103401827607,123956.0,165211.0,11102.0
1680103401837607,123952.0,165276.0,11099.0
1680103401846607,123911.0,165231.0,11077.0
1680103401857607,123904.0,165225.0,11087.0
1680103401868607,123864.0,165224.0,11076.0
1680103401877607,123820.0,165154.0,11090.0
1680103401887607,123768.0,165184.0,11095.0
1680103401897607,123684.0,165194.0,11081.0
1680103401907607,123668.0,165174.0,11041.0
1680103401917608,123602.0,165149.0,11065.0
1680103401927608,123565.0,165083.0,11025.0
1680103401937608,123432.0,165115.0,11034.0
1680103401948608,123375.0,165094.0,11029.0
1680103401959607,123323.0,165024.0,11023.0
1680103401967607,123258.0,164950.0,11018.0
1680103401977607,123233.0,164981.0,11032.0
1680103401987607,123211.0,164949.0,11025.0
1680103401997607,123128.0,164968.0,11018.0
1680103402007607,123170.0,164932.0,10999.0
1680103402017607,123135.0,164924.0,11018.0
1680103402027607,123122.0,164891.0,11016.0
1680103402037607,123098.0,164915.0,11001.0
1680103402047607,123077.0,164837.0,10954.0
1680103402057607,123066.0,164857.0,11010.0
1680103402068607,123040.0,164891.0,10991.0
1680103402078607,123025.0,164862.0,11000.0
1680103402088607,122977.0,164827.0,10995.0
1680103402097608,122978.0,164795.0,11021.0
1680103402107608,122985.0,164777.0,10991.0
1680103402117608,122955.0,164758.0,10984.0
1680103402128608,122943.0,164743.0,10996.0
1680103402136608,122911.0,164754.0,10981.0
1680103402147607,122845.0,164722.0,10986.0
1680103402158607,122892.0,164721.0,10974.0
1680103402167607,122830.0,164681.0,10982.0
1680103402177607,122858.0,164725.0,10974.0
1680103402187607,122914.0,164719.0,10984.0
1680103402197607,122890.0,164720.0,10953.0
1680103402208607,122916.0,164732.0,10988.0
1680103402218607,123019.0,164754.0,11011.0
1680103402229607,123090.0,164740.0,11046.0
1680103402237607,123164.0,164696.0,11045.0
1680103402247607,123227.0,164728.0,11080.0
1680103402257607,123327.0,164738.0,11064.0
1680103402267607,123375.0,164703.0,11096.0
1680103402277608,123394.0,164697.0,11105.0
1680103402287608,123413.0,164685.0,11106.0
1680103402297608,123402.0,164690.0,11103.0
1680103402306608,123351.0,164687.0,11085.0
1680103402317608,123364.0,164650.0,11048.0
1680103402328607,123307.0,164630.0,11064.0
1680103402337607,123248.0,164650.0,11064.0
1680103402349608,123228.0,164592.0,11062.0
1680103402357607,123190.0,164541.0,11055.0
1680103402367607,123146.0,164575.0,11034.0
1680103402378607,123100.0,164555.0,11003.0
1680103402387607,123054.0,164531.0,11026.0
1680103402397607,123032.0,164525.0,11013.0
1680103402407607,122981.0,164482.0,11015.0
1680103402417607,122893.0,164492.0,11000.0
1680103402427607,122901.0,164462.0,10971.0
1680103402437607,122848.0,164408.0,10986.0
1680103402447607,122810.0,164483.0,10974.0
1680103402458608,122744.0,164414.0,10974.0
1680103402466607,122735.0,164402.0,10964.0
1680103402477607,122726.0,164381.0,10971.0
1680103402487607,122719.0,164360.0,10955.0
1680103402497607,122707.0,164367.0,10968.0
1680103402507607,122627.0,164376.0,10946.0
1680103402518607,122665.0,164400.0,10947.0
1680103402528607,122652.0,164353.0,10951.0
1680103402539607,122664.0,164344.0,10957.0
1680103402547607,122650.0,164322.0,10990.0
1680103402556607,122624.0,164329.0,10960.0
1680103402567607,122678.0,164304.0,10927.0
1680103402578607,122682.0,164313.0,10941.0
1680103402587607,122664.0,164282.0,10969.0
1680103402597607,122658.0,164289.0,10969.0
1680103402607607,122649.0,164284.0,10968.0
1680103402617607,122605.0,164296.0,10972.0
1680103402628607,122651.0,164264.0,10957.0
1680103402636608,122602.0,164210.0,10966.0
1680103402647607,122617.0,164268.0,10925.0
1680103402658607,122602.0,164255.0,10956.0
1680103402668607,122626.0,164174.0,10954.0
1680103402676607,122588.0,164218.0,10958.0
1680103402687607,122555.0,164176.0,10938.0
1680103402697607,122509.0,164205.0,10953.0
1680103402707607,122548.0,164175.0,10937.0
1680103402717607,122538.0,164147.0,10942.0
1680103402726607,122495.0,164099.0,10952.0
1680103402737607,122448.0,164152.0,10953.0
1680103402747607,122505.0,164122.0,10928.0
1680103402756607,122434.0,164072.0,10940.0
1680103402767607,122468.0,164135.0,10935.0
1680103402777607,122508.0,164142.0,10922.0
1680103402788607,122414.0,164148.0,10923.0
1680103402798607,122439.0,164091.0,10926.0
1680103402806607,122425.0,164049.0,10923.0
1680103402817608,122405.0,164035.0,10922.0
1680103402827608,122371.0,164083.0,10918.0
1680103402837608,122349.0,164069.0,10920.0
1680103402846608,122383.0,164064.0,10928.0
1680103402857608,122377.0,164043.0,10904.0
1680103402867608,122362.0,164004.0,10926.0
1680103402877608,122318.0,164040.0,10916.0
1680103402886608,122364.0,164018.0,10904.0
1680103402897608,122374.0,164026.0,10932.0
1680103402907608,122423.0,164023.0,10941.0
1680103402917608,122435.0,164030.0,10911.0
1680103402928608,122451.0,164062.0,10955.0
1680103402938608,122527.0,164064.0,11009.0
1680103402949607,122615.0,164034.0,10976.0
1680103402957607,122686.0,164062.0,11017.0
1680103402966607,122713.0,164064.0,11028.0
1680103402976607,122807.0,164028.0,11010.0
1680103402987607,122821.0,164035.0,11038.0
1680103402997608,122832.0,164051.0,11033.0
1680103403006608,122810.0,164030.0,11026.0
1680103403016608,122790.0,164012.0,11019.0
1680103403027608,122782.0,163983.0,11007.0
1680103403037608,122749.0,164010.0,11016.0
1680103403047608,122698.0,164054.0,10996.0
1680103403059608,122662.0,163961.0,10982.0
1680103403066608,122606.0,163930.0,10980.0
1680103403077607,122560.0,163974.0,10983.0
1680103403087607,122480.0,163940.0,10966.0
1680103403096608,122454.0,163939.0,10919.0
1680103403107607,122381.0,163897.0,10945.0
1680103403117607,122348.0,163921.0,10944.0
1680103403127607,122265.0,163908.0,10939.0
1680103403137607,122264.0,163887.0,10907.0
1680103403146608,122221.0,163812.0,10899.0
1680103403157607,122177.0,163864.0,10860.0
1680103403168607,122131.0,163859.0,10884.0
1680103403178608,122116.0,163864.0,10886.0
1680103403186607,122085.0,163838.0,10872.0
1680103403197607,122097.0,163817.0,10847.0
1680103403207607,122089.0,163802.0,10861.0
1680103403216607,122094.0,163796.0,10897.0
1680103403227607,122088.0,163799.0,10904.0
1680103403237607,122114.0,163804.0,10901.0
1680103403247607,122130.0,163784.0,10906.0
1680103403256607,122088.0,163781.0,10916.0
1680103403266607,122143.0,163765.0,10883.0
1680103403277607,122159.0,163783.0,10889.0
1680103403288607,122152.0,163793.0,10905.0
1680103403298607,122171.0,163759.0,10914.0
1680103403306607,122152.0,163733.0,10909.0
1680103403317607,122127.0,163731.0,10909.0
1680103403327607,122129.0,163678.0,10915.0
1680103403337607,122121.0,163710.0,10894.0
1680103403346607,122080.0,163702.0,10892.0
1680103403357608,122070.0,163703.0,10883.0
1680103403367608,122029.0,163653.0,10904.0
1680103403377608,122012.0,163650.0,10892.0
1680103403386608,121987.0,163613.0,10886.0
1680103403396608,121918.0,163678.0,10897.0
1680103403407608,121952.0,163656.0,10831.0
1680103403417608,121947.0,163640.0,10879.0
1680103403427608,121965.0,163652.0,10871.0
1680103403438608,121923.0,163676.0,10870.0
1680103403446607,121861.0,163653.0,10882.0
1680103403457607,121921.0,163599.0,10844.0
1680103403466607,121889.0,163596.0,10884.0
1680103403476607,121884.0,163552.0,10872.0
1680103403487607,121878.0,163613.0,10866.0
1680103403497607,121887.0,163575.0,10842.0
1680103403506607,121868.0,163572.0,10871.0
1680103403516607,121868.0,163558.0,10861.0
1680103403526607,121851.0,163575.0,10874.0
1680103403537608,121823.0,163504.0,10824.0
1680103403546608,121817.0,163544.0,10867.0
1680103403557608,121836.0,163562.0,10859.0
1680103403568607,121790.0,163553.0,10852.0
1680103403578607,121769.0,163503.0,10858.0
1680103403588607,121729.0,163529.0,10883.0
1680103403596607,121708.0,163536.0,10860.0
1680103403606607,121715.0,163495.0,10865.0
1680103403617607,121770.0,163504.0,10873.0
1680103403627607,121815.0,163488.0,10878.0
1680103403636607,121866.0,163530.0,10895.0
1680103403646607,121928.0,163526.0,10904.0
1680103403657607,121979.0,163564.0,10917.0
1680103403667607,122055.0,163545.0,10913.0
1680103403676607,122134.0,163555.0,10951.0
1680103403687607,122204.0,163550.0,10922.0
1680103403696607,122151.0,163540.0,10965.0
1680103403707607,122197.0,163509.0,10964.0
1680103403716608,122188.0,163512.0,10955.0
1680103403726608,122173.0,163435.0,10939.0
1680103403736608,122135.0,163472.0,10929.0
1680103403747608,122105.0,163414.0,10933.0
1680103403756608,122058.0,163449.0,10921.0
1680103403767608,122008.0,163512.0,10913.0
1680103403778607,121981.0,163425.0,10899.0
1680103403788607,121926.0,163397.0,10903.0
1680103403798607,121876.0,163378.0,10920.0
1680103403806607,121849.0,163392.0,10881.0
1680103403816607,121821.0,163384.0,10841.0
1680103403827607,121758.0,163360.0,10872.0
1680103403837607,121734.0,163330.0,10860.0
1680103403846607,121701.0,163278.0,10858.0
1680103403856607,121650.0,163322.0,10839.0
1680103403867607,121650.0,163312.0,10807.0
1680103403877607,121646.0,163295.0,10851.0
1680103403886607,121584.0,163260.0,10829.0
1680103403896608,121635.0,163288.0,10843.0
1680103403907608,121580.0,163300.0,10828.0
1680103403918608,121601.0,163329.0,10836.0
1680103403928608,121635.0,163277.0,10835.0
1680103403936607,121630.0,163281.0,10841.0
1680103403947607,121648.0,163280.0,10846.0
1680103403956607,121684.0,163274.0,10856.0
1680103403966607,121661.0,163273.0,10862.0
1680103403977607,121713.0,163259.0,10854.0
1680103403986607,121716.0,163229.0,10868.0
1680103403997607,121719.0,163236.0,10857.0
1680103404006607,121652.0,163269.0,10861.0
1680103404016607,121730.0,163272.0,10866.0
1680103404027607,121758.0,163267.0,10834.0
1680103404037607,121731.0,163255.0,10865.0
1680103404046607,121644.0,163246.0,10854.0
1680103404058607,121705.0,163273.0,10854.0
1680103404068607,121683.0,163173.0,10882.0
1680103404076608,121651.0,163196.0,10855.0
1680103404087607,121624.0,163238.0,10860.0
1680103404096608,121587.0,163209.0,10851.0
1680103404106608,121648.0,163218.0,10807.0
1680103404117607,121627.0,163192.0,10848.0
1680103404127607,121628.0,163186.0,10855.0
1680103404136608,121613.0,163158.0,10839.0
1680103404146608,121586.0,163188.0,10847.0
1680103404156607,121610.0,163166.0,10809.0
1680103404167607,121585.0,163152.0,10844.0
1680103404176607,121571.0,163150.0,10842.0
1680103404186607,121521.0,163157.0,10841.0
1680103404197607,121546.0,163140.0,10843.0
1680103404206607,121529.0,163071.0,10832.0
1680103404217607,121509.0,163146.0,10795.0
1680103404226607,121472.0,163123.0,10832.0
1680103404236607,121506.0,163106.0,10811.0
1680103404247607,121496.0,163068.0,10837.0
1680103404256608,121463.0,163045.0,10824.0
1680103404266608,121447.0,163107.0,10820.0
1680103404276608,121434.0,163102.0,10815.0
1680103404287608,121434.0,163094.0,10822.0
1680103404296608,121474.0,163115.0,10812.0
1680103404306608,121460.0,163069.0,10835.0
1680103404317608,121536.0,163105.0,10851.0
1680103404326608,121616.0,163130.0,10861.0
1680103404337607,121647.0,163149.0,10833.0
1680103404347607,121736.0,163153.0,10877.0
1680103404358607,121807.0,163185.0,10934.0
1680103404366607,121872.0,163162.0,10896.0
1680103404377607,121909.0,163158.0,10924.0
1680103404386607,121957.0,163132.0,10933.0
1680103404396607,121962.0,163185.0,10939.0
1680103404407607,121998.0,163127.0,10943.0
1680103404416607,121927.0,163138.0,10938.0
1680103404426607,121957.0,163121.0,10912.0
1680103404436608,121915.0,163121.0,10927.0
1680103404446608,121856.0,163096.0,10921.0
1680103404457608,121850.0,163106.0,10908.0
1680103404465608,121819.0,163114.0,10899.0
1680103404476607,121793.0,163055.0,10881.0
1680103404487607,121749.0,163091.0,10892.0
1680103404496607,121750.0,163087.0,10870.0
1680103404506607,121661.0,163078.0,10814.0
1680103404517607,121589.0,163037.0,10851.0
1680103404528607,121617.0,163032.0,10849.0
1680103404538607,121561.0,162985.0,10869.0
1680103404546607,121536.0,163051.0,10830.0
1680103404556607,121483.0,163020.0,10834.0
1680103404567607,121490.0,162992.0,10820.0
1680103404576607,121478.0,162990.0,10835.0
1680103404587607,121478.0,163001.0,10834.0
1680103404596607,121443.0,162986.0,10835.0
1680103404606607,121479.0,162984.0,10818.0
1680103404617608,121494.0,163020.0,10843.0
1680103404626608,121483.0,162971.0,10831.0
1680103404636608,121489.0,162992.0,10839.0
1680103404646608,121515.0,162925.0,10836.0
1680103404656608,121521.0,162974.0,10856.0
1680103404667608,121480.0,162998.0,10843.0
1680103404678608,121517.0,162977.0,10855.0
1680103404686607,121521.0,162989.0,10856.0
1680103404696607,121584.0,162967.0,10808.0
1680103404707607,121553.0,162982.0,10827.0
1680103404716607,121563.0,162968.0,10850.0
1680103404726607,121539.0,162956.0,10862.0
1680103404736607,121524.0,162930.0,10848.0
1680103404747607,121542.0,162999.0,10845.0
1680103404756607,121515.0,162977.0,10830.0
1680103404766607,121500.0,162954.0,10851.0
1680103404776607,121522.0,162981.0,10843.0
1680103404787607,121508.0,162955.0,10839.0
1680103404797608,121486.0,162974.0,10845.0
1680103404806608,121443.0,162965.0,10839.0
1680103404816608,121450.0,162925.0,10849.0
1680103404827607,121470.0,162915.0,10837.0
1680103404836608,121474.0,162937.0,10839.0
1680103404846608,121464.0,162901.0,10833.0
1680103404856608,121448.0,162938.0,10838.0
1680103404866608,121445.0,162953.0,10838.0
1680103404876608,121416.0,162932.0,10833.0
1680103404886608,121436.0,162925.0,10804.0
1680103404896608,121435.0,162937.0,10827.0
1680103404906607,121452.0,162946.0,10812.0
1680103404917607,121402.0,162927.0,10784.0
1680103404927607,121350.0,162928.0,10803.0
1680103404938607,121381.0,162918.0,10812.0
1680103404948607,121366.0,162924.0,10836.0
1680103404956607,121362.0,162942.0,10817.0
1680103404966607,121316.0,162929.0,10830.0
1680103404976608,121372.0,162963.0,10799.0
1680103404986608,121378.0,162946.0,10826.0
1680103404997608,121419.0,162950.0,10831.0
1680103405005607,121452.0,162913.0,10854.0
1680103405016607,121508.0,163003.0,10845.0
1680103405026607,121521.0,162992.0,10867.0
1680103405036607,121656.0,163029.0,10878.0
1680103405046607,121739.0,163039.0,10907.0
1680103405056607,121763.0,163062.0,10909.0
1680103405066607,121837.0,163054.0,10919.0
1680103405077607,121846.0,163104.0,10912.0
1680103405087607,121855.0,163089.0,10912.0
1680103405096607,121888.0,163045.0,10908.0
1680103405106607,121830.0,163012.0,10907.0
1680103405116607,121792.0,163034.0,10913.0
1680103405126607,121719.0,163009.0,10901.0
1680103405136607,121735.0,162992.0,10880.0
1680103405146607,121712.0,162944.0,10884.0
1680103405156608,121651.0,163000.0,10877.0
1680103405166608,121604.0,162997.0,10841.0
1680103405176608,121591.0,162971.0,10822.0
1680103405186608,121553.0,162954.0,10866.0
1680103405196608,121527.0,162925.0,10829.0
1680103405207608,121478.0,162915.0,10842.0
1680103405215608,121481.0,162942.0,10827.0
1680103405226607,121425.0,162935.0,10792.0
1680103405237607,121365.0,162920.0,10815.0
1680103405247607,121338.0,162940.0,10815.0
1680103405257607,121379.0,162874.0,10810.0
1680103405267607,121350.0,162841.0,10807.0
1680103405278607,121337.0,162892.0,10831.0
1680103405286607,121354.0,162859.0,10820.0
1680103405296607,121304.0,162858.0,10817.0
1680103405306607,121365.0,162860.0,10804.0
1680103405316607,121384.0,162801.0,10819.0
1680103405326607,121386.0,162889.0,10820.0
1680103405336608,121340.0,162871.0,10836.0
1680103405346608,121414.0,162861.0,10805.0
1680103405356608,121415.0,162834.0,10820.0
1680103405366608,121447.0,162883.0,10843.0
1680103405377607,121430.0,162872.0,10798.0
1680103405387607,121432.0,162893.0,10834.0
1680103405398607,121388.0,162833.0,10861.0
1680103405406607,121396.0,162857.0,10853.0
1680103405416607,121393.0,162850.0,10843.0
1680103405425607,121419.0,162862.0,10837.0
1680103405436607,121420.0,162855.0,10826.0
1680103405446607,121409.0,162788.0,10836.0
1680103405456607,121437.0,162830.0,10828.0
1680103405466607,121400.0,162773.0,10827.0
1680103405475607,121353.0,162839.0,10838.0
1680103405486607,121384.0,162830.0,10785.0
1680103405497607,121386.0,162809.0,10820.0
1680103405506607,121390.0,162846.0,10831.0
1680103405517608,121382.0,162820.0,10828.0
1680103405526608,121349.0,162819.0,10827.0
1680103405537608,121353.0,162845.0,10820.0
1680103405547608,121393.0,162779.0,10824.0
1680103405555607,121404.0,162809.0,10829.0
1680103405565607,121400.0,162804.0,10833.0
1680103405576607,121406.0,162812.0,10814.0
1680103405587607,121421.0,162810.0,10835.0
1680103405595607,121408.0,162846.0,10813.0
1680103405606607,121373.0,162812.0,10806.0
1680103405616607,121403.0,162807.0,10823.0
1680103405626607,121348.0,162799.0,10840.0
1680103405636607,121406.0,162848.0,10825.0
1680103405646607,121456.0,162849.0,10835.0
1680103405656607,121428.0,162857.0,10835.0
1680103405667607,121465.0,162877.0,10819.0
1680103405677607,121489.0,162922.0,10839.0
1680103405688607,121551.0,162899.0,10900.0
1680103405698608,121577.0,162911.0,10891.0
1680103405706607,121717.0,162926.0,10886.0
1680103405716607,121797.0,162951.0,10926.0
1680103405725607,121850.0,162910.0,10932.0
1680103405736607,121896.0,162988.0,10935.0
1680103405746607,121906.0,162958.0,10914.0
1680103405756607,121870.0,162972.0,10933.0
1680103405765607,121889.0,162971.0,10943.0
1680103405776607,121897.0,162973.0,10899.0
1680103405786607,121877.0,162937.0,10933.0
1680103405796607,121845.0,162927.0,10925.0
1680103405806607,121811.0,162903.0,10920.0
1680103405816607,121685.0,162926.0,10898.0
1680103405827607,121704.0,162938.0,10890.0
1680103405837607,121640.0,162885.0,10872.0
1680103405845607,121608.0,162833.0,10881.0
1680103405856607,121561.0,162882.0,10862.0
1680103405866607,121506.0,162875.0,10840.0
1680103405876608,121472.0,162857.0,10855.0
1680103405886608,121443.0,162840.0,10844.0
1680103405895608,121409.0,162850.0,10840.0
1680103405906607,121393.0,162881.0,10829.0
1680103405917607,121375.0,162819.0,10806.0
1680103405925607,121357.0,162801.0,10829.0
1680103405936607,121348.0,162825.0,10828.0
1680103405945607,121350.0,162796.0,10835.0
1680103405956607,121340.0,162747.0,10827.0
1680103405966607,121381.0,162808.0,10835.0
1680103405975607,121428.0,162817.0,10841.0
1680103405986607,121378.0,162816.0,10810.0
1680103405997607,121460.0,162819.0,10846.0
1680103406007607,121480.0,162788.0,10854.0
1680103406018607,121487.0,162731.0,10878.0
1680103406025607,121500.0,162794.0,10868.0
1680103406036607,121526.0,162776.0,10837.0
1680103406046607,121518.0,162759.0,10873.0
1680103406055608,121539.0,162757.0,10878.0
1680103406066608,121531.0,162765.0,10877.0
1680103406076608,121512.0,162767.0,10873.0
1680103406086608,121465.0,162778.0,10877.0
1680103406095608,121448.0,162716.0,10875.0
1680103406106608,121440.0,162688.0,10860.0
1680103406116608,121426.0,162697.0,10841.0
1680103406126608,121381.0,162691.0,10851.0
1680103406136608,121378.0,162694.0,10829.0
1680103406145608,121383.0,162695.0,10846.0
1680103406156607,121297.0,162687.0,10828.0
1680103406167607,121300.0,162664.0,10813.0
1680103406177607,121323.0,162698.0,10827.0
1680103406188607,121241.0,162641.0,10804.0
1680103406196607,121239.0,162635.0,10824.0
1680103406206607,121222.0,162623.0,10816.0
1680103406215607,121172.0,162636.0,10815.0
1680103406226607,121212.0,162629.0,10807.0
1680103406236608,121198.0,162656.0,10810.0
1680103406246608,121188.0,162567.0,10806.0
1680103406256608,121180.0,162581.0,10808.0
1680103406265608,121163.0,162666.0,10815.0
1680103406276608,121184.0,162637.0,10821.0
1680103406286608,121201.0,162630.0,10798.0
1680103406296608,121236.0,162669.0,10773.0
1680103406307608,121172.0,162653.0,10813.0
1680103406317608,121224.0,162626.0,10812.0
1680103406328607,121227.0,162603.0,10845.0
1680103406336607,121253.0,162650.0,10831.0
1680103406345607,121299.0,162667.0,10805.0
1680103406356607,121357.0,162651.0,10845.0
1680103406366607,121436.0,162631.0,10870.0
1680103406376607,121502.0,162717.0,10879.0
1680103406386607,121562.0,162722.0,10874.0
1680103406395607,121644.0,162738.0,10917.0
1680103406406607,121688.0,162720.0,10923.0
1680103406416608,121679.0,162724.0,10928.0
1680103406425608,121764.0,162743.0,10945.0
1680103406435608,121764.0,162738.0,10940.0
1680103406446608,121749.0,162713.0,10894.0
1680103406456608,121730.0,162770.0,10933.0
1680103406465608,121726.0,162732.0,10913.0
1680103406476608,121683.0,162720.0,10900.0
1680103406487608,121644.0,162729.0,10893.0
1680103406495607,121601.0,162665.0,10916.0
1680103406505607,121567.0,162683.0,10860.0
1680103406516607,121537.0,162666.0,10878.0
1680103406525607,121493.0,162694.0,10861.0
1680103406536607,121457.0,162691.0,10839.0
1680103406546607,121439.0,162717.0,10847.0
1680103406555607,121391.0,162720.0,10841.0
1680103406566607,121340.0,162723.0,10849.0
1680103406576607,121353.0,162712.0,10796.0
1680103406586607,121336.0,162664.0,10823.0
1680103406596608,121323.0,162757.0,10819.0
1680103406607607,121325.0,162781.0,10803.0
1680103406618607,121313.0,162795.0,10852.0
1680103406626607,121317.0,162825.0,10812.0
1680103406635607,121364.0,162806.0,10767.0
1680103406645607,121360.0,162815.0,10832.0
1680103406656607,121389.0,162811.0,10809.0
1680103406666607,121423.0,162785.0,10836.0
1680103406675607,121439.0,162881.0,10831.0
1680103406685607,121458.0,162847.0,10848.0
1680103406696607,121491.0,162863.0,10852.0
1680103406706607,121518.0,162834.0,10838.0
1680103406715607,121529.0,162867.0,10854.0
1680103406726607,121585.0,162895.0,10843.0
1680103406735607,121580.0,162890.0,10862.0
1680103406746607,121572.0,162910.0,10847.0
1680103406756607,121598.0,162911.0,10860.0
1680103406767607,121587.0,162932.0,10864.0
1680103406775608,121573.0,162880.0,10873.0
1680103406786608,121592.0,162887.0,10851.0
1680103406796608,121587.0,162853.0,10864.0
1680103406805608,121584.0,162819.0,10871.0
1680103406816608,121560.0,162845.0,10865.0
1680103406826608,121533.0,162837.0,10863.0
1680103406836608,121506.0,162825.0,10865.0
1680103406845608,121450.0,162810.0,10855.0
1680103406855608,121487.0,162777.0,10833.0
1680103406866608,121476.0,162811.0,10840.0
1680103406877607,121464.0,162819.0,10836.0
1680103406887607,121449.0,162745.0,10840.0
1680103406895607,121433.0,162812.0,10837.0
1680103406906607,121413.0,162809.0,10822.0
1680103406916607,121418.0,162782.0,10845.0
1680103406925607,121402.0,162752.0,10833.0
1680103406935607,121369.0,162800.0,10845.0
1680103406945607,121412.0,162779.0,10822.0
1680103406956608,121420.0,162790.0,10838.0
1680103406965608,121421.0,162774.0,10841.0
1680103406975608,121430.0,162776.0,10839.0
1680103406986608,121463.0,162809.0,10858.0
1680103406995608,121481.0,162817.0,10857.0
1680103407005608,121499.0,162839.0,10840.0
1680103407017608,121575.0,162861.0,10862.0
1680103407027608,121615.0,162865.0,10904.0
1680103407038608,121692.0,162879.0,10919.0
1680103407046608,121781.0,162843.0,10917.0
1680103407055608,121841.0,162930.0,10936.0
1680103407065608,121937.0,162926.0,10927.0
1680103407076608,121989.0,162936.0,10931.0
1680103407086608,122012.0,162933.0,10972.0
1680103407095608,122028.0,162961.0,10968.0
1680103407105608,122012.0,162941.0,10968.0
1680103407116608,122004.0,162930.0,10960.0
1680103407126608,121937.0,162871.0,10942.0
1680103407135608,121945.0,162888.0,10942.0
1680103407145608,121939.0,162906.0,10943.0
1680103407156607,121871.0,162904.0,10895.0
1680103407166607,121790.0,162893.0,10910.0
1680103407177607,121786.0,162883.0,10899.0
1680103407185607,121755.0,162818.0,10915.0
1680103407195607,121704.0,162816.0,10891.0
1680103407206607,121672.0,162784.0,10892.0
1680103407215607,121626.0,162820.0,10869.0
1680103407225607,121583.0,162811.0,10874.0
1680103407235607,121544.0,162787.0,10878.0
1680103407246607,121578.0,162770.0,10827.0
1680103407255607,121555.0,162761.0,10870.0
1680103407265607,121512.0,162765.0,10869.0
1680103407275607,121561.0,162737.0,10866.0
1680103407286607,121539.0,162780.0,10850.0
1680103407296607,121593.0,162832.0,10864.0
1680103407307607,121598.0,162750.0,10869.0
1680103407315608,121624.0,162800.0,10877.0
1680103407326608,121646.0,162791.0,10856.0
1680103407335608,121683.0,162788.0,10869.0
1680103407345608,121705.0,162784.0,10890.0
1680103407355608,121710.0,162760.0,10898.0
1680103407365608,121723.0,162813.0,10904.0
1680103407376608,121732.0,162750.0,10910.0
1680103407385608,121737.0,162811.0,10894.0
1680103407395608,121736.0,162791.0,10878.0
1680103407406607,121733.0,162809.0,10905.0
1680103407415608,121687.0,162760.0,10898.0
1680103407425608,121707.0,162766.0,10908.0
1680103407435608,121695.0,162794.0,10888.0
1680103407445608,121712.0,162790.0,10901.0
1680103407456607,121680.0,162806.0,10860.0
1680103407465608,121668.0,162798.0,10889.0
1680103407475607,121637.0,162788.0,10902.0
1680103407486607,121659.0,162816.0,10894.0
1680103407495608,121649.0,162798.0,10899.0
1680103407505608,121653.0,162773.0,10882.0
1680103407515608,121631.0,162791.0,10878.0
1680103407526608,121599.0,162815.0,10884.0
1680103407535608,121617.0,162790.0,10888.0
1680103407546608,121583.0,162831.0,10886.0
1680103407555608,121627.0,162823.0,10891.0
1680103407565608,121629.0,162838.0,10855.0
1680103407576608,121639.0,162832.0,10882.0
1680103407585608,121648.0,162805.0,10881.0
1680103407595608,121636.0,162844.0,10870.0
1680103407606608,121628.0,162854.0,10867.0
1680103407616608,121589.0,162870.0,10880.0
1680103407627607,121587.0,162841.0,10866.0
1680103407635607,121638.0,162847.0,10874.0
1680103407645607,121631.0,162813.0,10873.0
1680103407655607,121624.0,162854.0,10888.0
1680103407666607,121675.0,162853.0,10863.0
1680103407675608,121688.0,162881.0,10883.0
1680103407685608,121728.0,162840.0,10907.0
1680103407696607,121801.0,162852.0,10933.0
1680103407705608,121856.0,162904.0,10946.0
1680103407715608,121955.0,162962.0,10960.0
1680103407726607,122031.0,162951.0,10954.0
1680103407736607,122108.0,162896.0,10977.0
1680103407747607,122161.0,162991.0,10989.0
1680103407756607,122176.0,162987.0,11021.0
1680103407767607,122213.0,162979.0,10972.0
1680103407775607,122215.0,162975.0,10994.0
1680103407786607,122202.0,162961.0,11003.0
1680103407795607,122126.0,162934.0,10996.0
1680103407805607,122160.0,162915.0,10970.0
1680103407815607,122108.0,162894.0,10989.0
1680103407825607,122079.0,162845.0,10974.0
1680103407836607,122028.0,162890.0,10950.0
1680103407845607,121976.0,162843.0,10925.0
1680103407855608,121914.0,162830.0,10949.0
1680103407866608,121912.0,162839.0,10942.0
1680103407875608,121878.0,162829.0,10933.0
1680103407885608,121843.0,162817.0,10923.0
1680103407896608,121804.0,162816.0,10911.0
1680103407907607,121755.0,162788.0,10954.0
1680103407915607,121759.0,162778.0,10874.0
1680103407925607,121752.0,162765.0,10883.0
1680103407935607,121742.0,162737.0,10905.0
1680103407945607,121727.0,162758.0,10906.0
1680103407956607,121741.0,162781.0,10903.0
1680103407964607,121710.0,162790.0,10918.0
1680103407975607,121767.0,162780.0,10896.0
1680103407985607,121803.0,162790.0,10923.0
1680103407996607,121812.0,162799.0,10923.0
1680103408006607,121813.0,162841.0,10922.0
1680103408017607,121860.0,162803.0,10913.0
1680103408025607,121871.0,162778.0,10937.0
1680103408036608,121891.0,162839.0,10943.0
1680103408045608,121865.0,162792.0,10950.0
1680103408055608,121882.0,162804.0,10955.0
1680103408065608,121902.0,162789.0,10935.0
1680103408075608,121912.0,162750.0,10947.0
1680103408086608,121895.0,162804.0,10941.0
1680103408095608,121868.0,162780.0,10950.0
1680103408105608,121885.0,162778.0,10942.0
1680103408115608,121840.0,162809.0,10936.0
1680103408125608,121863.0,162829.0,10910.0
1680103408135608,121856.0,162812.0,10941.0
1680103408145608,121846.0,162869.0,10931.0
1680103408156607,121853.0,162826.0,10930.0
1680103408167607,121775.0,162812.0,10928.0
1680103408175607,121843.0,162786.0,10932.0
1680103408185607,121811.0,162801.0,10924.0
1680103408195607,121821.0,162721.0,10918.0
1680103408205607,121811.0,162828.0,10929.0
1680103408215608,121813.0,162797.0,10897.0
1680103408225608,121803.0,162806.0,10928.0
1680103408235608,121792.0,162784.0,10933.0
1680103408245608,121814.0,162782.0,10882.0
1680103408255608,121800.0,162780.0,10911.0
1680103408265608,121793.0,162767.0,10931.0
1680103408275608,121794.0,162815.0,10930.0
1680103408285608,121787.0,162821.0,10927.0
1680103408295608,121798.0,162770.0,10923.0
1680103408306608,121789.0,162811.0,10916.0
1680103408316608,121828.0,162802.0,10931.0
1680103408327607,121836.0,162781.0,10975.0
1680103408335607,121893.0,162809.0,10963.0
1680103408345607,121919.0,162874.0,10975.0
1680103408355607,122041.0,162857.0,10973.0
1680103408365607,122128.0,162860.0,11004.0
1680103408375607,122189.0,162917.0,11013.0
1680103408384607,122244.0,162945.0,11028.0
1680103408395608,122318.0,162933.0,11010.0
1680103408405608,122354.0,162943.0,11050.0
1680103408415608,122335.0,162931.0,11051.0
1680103408425608,122382.0,162939.0,11049.0
1680103408434608,122352.0,162942.0,11040.0
1680103408445608,122332.0,162946.0,11000.0
1680103408456607,122300.0,162923.0,11022.0
1680103408465608,122281.0,162953.0,11018.0
1680103408476607,122229.0,162927.0,11018.0
1680103408486607,122175.0,162915.0,11007.0
1680103408497607,122190.0,162900.0,11001.0
1680103408506607,122142.0,162898.0,11017.0
1680103408514607,122129.0,162841.0,10987.0
1680103408525607,122092.0,162934.0,10981.0
1680103408535607,122068.0,162919.0,10948.0
1680103408545607,122042.0,162907.0,10972.0
1680103408555607,122017.0,162918.0,10970.0
1680103408564607,121964.0,162941.0,10973.0
1680103408575608,122010.0,162897.0,10967.0
1680103408585608,121994.0,162895.0,10963.0
1680103408595608,121970.0,162922.0,10954.0
1680103408605608,121993.0,162923.0,10972.0
1680103408615608,121967.0,162919.0,10964.0
1680103408626608,122008.0,162906.0,10963.0
1680103408634607,122023.0,162904.0,10974.0
1680103408645607,122024.0,162931.0,10935.0
1680103408656607,122052.0,162945.0,10975.0
1680103408667607,122047.0,162943.0,11014.0
1680103408675607,122081.0,162943.0,10974.0
1680103408684607,122084.0,162881.0,10995.0
1680103408695607,122095.0,162968.0,10996.0
1680103408706607,122081.0,162926.0,10969.0
1680103408714607,122089.0,162923.0,10993.0
1680103408725607,122095.0,162878.0,10995.0
1680103408734607,122048.0,162888.0,10993.0
1680103408745607,122084.0,162901.0,10988.0
1680103408755608,122083.0,162890.0,10983.0
1680103408765608,122072.0,162837.0,10985.0
1680103408776608,122073.0,162907.0,10985.0
1680103408787608,122081.0,162862.0,10981.0
1680103408796608,122054.0,162879.0,11010.0
1680103408804607,122064.0,162918.0,10999.0
1680103408815607,122026.0,162873.0,10997.0
1680103408825607,122071.0,162884.0,10993.0
1680103408835607,122031.0,162916.0,10992.0
1680103408845607,122069.0,162886.0,10954.0
1680103408854607,122069.0,162859.0,10988.0
1680103408865607,122046.0,162927.0,10975.0
1680103408875607,121983.0,162932.0,10967.0
1680103408884607,122014.0,162938.0,10947.0
1680103408895607,122026.0,162908.0,10981.0
1680103408904607,121976.0,162890.0,10974.0
1680103408915607,121997.0,162898.0,10979.0
1680103408924607,122000.0,162908.0,10957.0
1680103408935608,122000.0,162879.0,10959.0
1680103408945608,121984.0,162942.0,10951.0
1680103408956607,121993.0,162944.0,10961.0
1680103408964607,121974.0,162918.0,10960.0
1680103408974607,122004.0,162898.0,10959.0
1680103408985607,122012.0,162895.0,10976.0
1680103408995607,122057.0,162951.0,10979.0
1680103409004607,122095.0,162957.0,10999.0
1680103409015607,122188.0,162984.0,11014.0
1680103409024607,122258.0,162967.0,11025.0
1680103409035607,122340.0,163034.0,11042.0
1680103409045607,122423.0,163031.0,11059.0
1680103409054607,122493.0,163046.0,11044.0
1680103409065607,122543.0,163066.0,11084.0
1680103409074607,122597.0,163065.0,11076.0
1680103409085607,122575.0,163060.0,11046.0
1680103409096607,122573.0,163057.0,11081.0
1680103409106607,122566.0,163018.0,11079.0
1680103409117608,122525.0,162959.0,11094.0
1680103409125608,122495.0,162980.0,11076.0
1680103409134608,122456.0,162986.0,11072.0
1680103409144608,122366.0,162941.0,11062.0
1680103409155608,122375.0,162970.0,11042.0
1680103409165608,122340.0,162904.0,11044.0
1680103409174608,122249.0,162853.0,11038.0
1680103409185608,122268.0,162948.0,11036.0
1680103409194608,122284.0,162977.0,11027.0
1680103409205608,122181.0,162945.0,10991.0
1680103409215608,122187.0,162945.0,10980.0
1680103409226607,122153.0,162898.0,10995.0
1680103409237607,122141.0,162966.0,11007.0
1680103409244607,122122.0,162973.0,10994.0
1680103409254607,122143.0,162992.0,10956.0
1680103409265607,122134.0,162973.0,10996.0
1680103409274607,122159.0,163031.0,10995.0
1680103409285607,122135.0,163021.0,11009.0
1680103409295608,122217.0,163042.0,11007.0
1680103409304608,122192.0,163036.0,11017.0
1680103409314608,122212.0,163039.0,11024.0
1680103409325608,122262.0,163067.0,11004.0
1680103409335608,122297.0,163049.0,11025.0
1680103409345608,122347.0,163068.0,11021.0
1680103409356608,122311.0,162970.0,11019.0
1680103409365608,122325.0,163054.0,11021.0
1680103409375608,122325.0,163058.0,11020.0
1680103409384608,122305.0,163074.0,11025.0
1680103409394608,122327.0,163063.0,11004.0
1680103409405608,122303.0,163069.0,11033.0
1680103409415608,122301.0,163031.0,11032.0
1680103409424608,122310.0,163077.0,11036.0
1680103409434608,122301.0,163062.0,11027.0
1680103409444608,122304.0,163058.0,11010.0
1680103409455608,122318.0,163018.0,11029.0
1680103409464608,122321.0,163098.0,11024.0
1680103409474608,122309.0,163093.0,11043.0
1680103409485607,122247.0,163093.0,11013.0
1680103409496607,122259.0,163118.0,11014.0
1680103409505607,122308.0,163072.0,11019.0
1680103409514608,122283.0,163023.0,11010.0
1680103409525607,122280.0,163111.0,11012.0
1680103409534608,122289.0,163099.0,11021.0
1680103409545607,122273.0,163092.0,10990.0
1680103409554607,122266.0,163083.0,11014.0
1680103409564607,122269.0,163127.0,11007.0
1680103409575607,122232.0,163118.0,11003.0
1680103409585607,122257.0,163130.0,11017.0
1680103409594607,122222.0,163135.0,10998.0
1680103409604607,122262.0,163164.0,11012.0
1680103409615607,122292.0,163188.0,10982.0
1680103409625607,122290.0,163188.0,10997.0
1680103409635607,122263.0,163202.0,10976.0
1680103409646607,122269.0,163172.0,10996.0
1680103409656608,122270.0,163183.0,11032.0
1680103409666608,122263.0,163194.0,11005.0
1680103409674608,122319.0,163207.0,11031.0
1680103409685608,122384.0,163249.0,11042.0
1680103409694608,122431.0,163224.0,11038.0
1680103409705608,122492.0,163311.0,11065.0
1680103409714608,122596.0,163320.0,11055.0
1680103409724608,122655.0,163318.0,11064.0
1680103409735607,122701.0,163330.0,11103.0
1680103409744608,122722.0,163358.0,11088.0
1680103409754608,122789.0,163378.0,11097.0
1680103409765607,122803.0,163368.0,11082.0
1680103409774608,122825.0,163402.0,11108.0
1680103409785607,122793.0,163404.0,11065.0
1680103409796607,122771.0,163413.0,11088.0
1680103409804607,122714.0,163363.0,11140.0
1680103409815607,122709.0,163384.0,11088.0
1680103409824607,122670.0,163299.0,11071.0
1680103409835608,122641.0,163366.0,11067.0
1680103409844608,122575.0,163353.0,11075.0
1680103409854608,122552.0,163344.0,11067.0
1680103409865608,122549.0,163318.0,11023.0
1680103409875608,122509.0,163319.0,11041.0
1680103409884608,122491.0,163294.0,11042.0
1680103409894608,122407.0,163313.0,11027.0
1680103409905608,122460.0,163307.0,11017.0
1680103409915608,122433.0,163298.0,11002.0
1680103409924608,122434.0,163235.0,11016.0
1680103409934608,122431.0,163328.0,11024.0
1680103409945608,122424.0,163321.0,11013.0
1680103409955608,122409.0,163380.0,11016.0
1680103409965608,122466.0,163303.0,11021.0
1680103409976607,122475.0,163302.0,11026.0
1680103409985607,122489.0,163344.0,11065.0
1680103409994608,122524.0,163354.0,11029.0
1680103410004608,122507.0,163353.0,11015.0
1680103410014608,122528.0,163356.0,11038.0
1680103410024608,122548.0,163362.0,11010.0
1680103410034608,122556.0,163371.0,11022.0
1680103410045607,122556.0,163324.0,11027.0
1680103410054607,122560.0,163317.0,11049.0
1680103410064607,122595.0,163354.0,11051.0
1680103410075607,122561.0,163359.0,11012.0
1680103410085607,122531.0,163383.0,11042.0
1680103410096607,122562.0,163392.0,11036.0
1680103410106607,122541.0,163341.0,11057.0
1680103410114607,122539.0,163343.0,11048.0
1680103410125607,122508.0,163343.0,11048.0
1680103410134607,122567.0,163316.0,11041.0
1680103410144607,122560.0,163280.0,11051.0
1680103410155607,122545.0,163331.0,11039.0
1680103410164607,122500.0,163319.0,11050.0
1680103410174607,122547.0,163298.0,11010.0
1680103410184607,122527.0,163312.0,11050.0
1680103410194608,122568.0,163309.0,11046.0
1680103410205608,122520.0,163310.0,11001.0
1680103410215608,122490.0,163269.0,11030.0
1680103410226607,122494.0,163310.0,11060.0
1680103410236607,122477.0,163272.0,11033.0
1680103410247607,122495.0,163278.0,11032.0
1680103410254607,122488.0,163226.0,11023.0
1680103410264607,122435.0,163235.0,11017.0
1680103410275607,122474.0,163244.0,11039.0
1680103410284607,122474.0,163194.0,11026.0
1680103410295607,122450.0,163253.0,11029.0
1680103410303607,122459.0,163222.0,11003.0
1680103410314607,122445.0,163246.0,11015.0
1680103410325607,122451.0,163178.0,11037.0
1680103410334607,122457.0,163230.0,11026.0
1680103410344607,122450.0,163250.0,11009.0
1680103410355607,122473.0,163216.0,11032.0
1680103410364607,122492.0,163229.0,11035.0
1680103410375608,122512.0,163221.0,11030.0
1680103410384608,122528.0,163248.0,11063.0
1680103410394608,122644.0,163308.0,11064.0
1680103410404608,122709.0,163286.0,11090.0
1680103410415608,122796.0,163300.0,11104.0
1680103410423607,122899.0,163320.0,11091.0
1680103410434607,122929.0,163327.0,11134.0
1680103410444607,122956.0,163355.0,11110.0
1680103410455607,122972.0,163370.0,11134.0
1680103410465607,122962.0,163349.0,11131.0
1680103410475607,122929.0,163304.0,11133.0
1680103410486607,122933.0,163311.0,11117.0
1680103410496607,122901.0,163271.0,11133.0
1680103410504607,122862.0,163282.0,11118.0
1680103410514607,122797.0,163280.0,11109.0
1680103410525607,122801.0,163260.0,11060.0
1680103410534607,122755.0,163246.0,11093.0
1680103410545607,122717.0,163236.0,11096.0
1680103410553608,122651.0,163225.0,11086.0
1680103410564607,122667.0,163194.0,11044.0
1680103410575607,122633.0,163182.0,11053.0
1680103410584607,122601.0,163116.0,11058.0
1680103410594607,122593.0,163133.0,11055.0
1680103410604607,122547.0,163169.0,11060.0
1680103410614607,122566.0,163158.0,11051.0
1680103410625607,122517.0,163140.0,11033.0
1680103410634607,122519.0,163131.0,11045.0
1680103410644607,122559.0,163094.0,11061.0
1680103410654607,122573.0,163144.0,11049.0
1680103410664607,122587.0,163116.0,11030.0
1680103410674607,122597.0,163158.0,11047.0
1680103410685607,122602.0,163224.0,11063.0
1680103410695607,122633.0,163175.0,11070.0
1680103410706607,122617.0,163127.0,11065.0
1680103410714607,122641.0,163152.0,11102.0
1680103410724607,122668.0,163131.0,11082.0
1680103410734608,122659.0,163079.0,11085.0
1680103410745607,122685.0,163100.0,11080.0
1680103410754608,122670.0,163117.0,11075.0
1680103410764608,122665.0,163165.0,11092.0
1680103410774608,122688.0,163104.0,11075.0
1680103410785607,122680.0,163185.0,11094.0
1680103410794608,122697.0,163144.0,11082.0
1680103410804607,122675.0,163104.0,11080.0
1680103410814607,122680.0,163140.0,11089.0
1680103410824607,122671.0,163061.0,11067.0
1680103410835607,122649.0,163107.0,11084.0
1680103410844607,122683.0,163113.0,11072.0
1680103410855607,122629.0,163155.0,11069.0
1680103410866607,122619.0,163101.0,11065.0
1680103410874607,122603.0,163103.0,11065.0
1680103410884607,122589.0,163047.0,11067.0
1680103410894607,122583.0,163067.0,11067.0
1680103410904607,122545.0,163092.0,11066.0
1680103410915608,122559.0,163071.0,11036.0
1680103410923607,122551.0,163049.0,11069.0
1680103410934607,122555.0,163044.0,11068.0
1680103410944607,122553.0,163102.0,11065.0
1680103410954607,122565.0,163037.0,11070.0
1680103410964607,122541.0,163081.0,11052.0
1680103410974607,122576.0,163124.0,11070.0
1680103410985607,122574.0,163048.0,11071.0
1680103410996607,122558.0,163081.0,11065.0
1680103411005607,122570.0,163066.0,11084.0
1680103411014607,122548.0,163063.0,11090.0
1680103411024607,122540.0,163060.0,11071.0
1680103411034607,122516.0,163079.0,11063.0
1680103411045607,122476.0,163058.0,11075.0
1680103411054607,122555.0,163063.0,11070.0
1680103411064607,122555.0,163074.0,11067.0
1680103411074607,122559.0,163074.0,11083.0
1680103411084607,122586.0,163083.0,11096.0
1680103411094608,122597.0,163148.0,11054.0
1680103411104608,122710.0,163139.0,11116.0
1680103411114608,122763.0,163115.0,11125.0
1680103411125608,122823.0,163194.0,11144.0
1680103411134608,122930.0,163214.0,11140.0
1680103411145608,122932.0,163232.0,11141.0
1680103411155608,122957.0,163199.0,11150.0
1680103411166607,122956.0,163196.0,11154.0
1680103411174607,122949.0,163182.0,11190.0
1680103411183607,122888.0,163208.0,11152.0
1680103411194607,122924.0,163194.0,11139.0
1680103411205607,122882.0,163135.0,11154.0
1680103411213607,122858.0,163178.0,11131.0
1680103411224607,122821.0,163178.0,11127.0
1680103411234607,122807.0,163172.0,11106.0
1680103411244607,122729.0,163138.0,11119.0
1680103411254607,122751.0,163154.0,11120.0
1680103411263607,122713.0,163126.0,11111.0
1680103411274608,122669.0,163130.0,11061.0
1680103411285607,122600.0,163116.0,11082.0
1680103411295607,122593.0,163147.0,11076.0
1680103411306607,122599.0,163082.0,11075.0
1680103411314607,122543.0,163056.0,11079.0
1680103411324607,122539.0,163089.0,11082.0
1680103411334607,122518.0,163069.0,11101.0
1680103411343607,122534.0,163078.0,11069.0
1680103411354607,122556.0,163082.0,11084.0
1680103411364607,122561.0,163018.0,11082.0
1680103411374607,122579.0,163110.0,11086.0
1680103411384607,122566.0,163099.0,11081.0
1680103411394607,122598.0,163111.0,11095.0
1680103411404607,122632.0,163070.0,11103.0
1680103411414607,122653.0,163098.0,11098.0
1680103411423607,122653.0,163106.0,11101.0
1680103411434607,122708.0,163147.0,11088.0
1680103411445607,122650.0,163193.0,11099.0
1680103411455608,122660.0,163151.0,11101.0
1680103411465608,122648.0,163098.0,11091.0
1680103411476607,122644.0,163136.0,11127.0
1680103411483607,122576.0,163120.0,11112.0
1680103411494607,122615.0,163100.0,11074.0
1680103411504607,122593.0,163065.0,11093.0
1680103411513607,122585.0,163092.0,11094.0
1680103411524607,122539.0,163042.0,11083.0
1680103411534607,122504.0,163066.0,11079.0
1680103411544607,122541.0,163071.0,11092.0
1680103411554607,122513.0,163054.0,11039.0
1680103411564607,122465.0,162999.0,11077.0
1680103411574607,122474.0,162995.0,11070.0
1680103411584607,122470.0,163001.0,11073.0
1680103411594607,122440.0,162934.0,11048.0
1680103411605607,122444.0,162948.0,11065.0
1680103411614607,122433.0,162892.0,11055.0
1680103411624607,122408.0,162953.0,11057.0
1680103411633608,122384.0,162911.0,11059.0
1680103411644608,122384.0,162905.0,11043.0
1680103411654608,122376.0,162939.0,11031.0
1680103411664608,122386.0,162901.0,11073.0
1680103411674608,122370.0,162887.0,11068.0
1680103411683608,122371.0,162841.0,11078.0
1680103411694608,122372.0,162850.0,11093.0
1680103411704608,122415.0,162885.0,11066.0
1680103411713608,122368.0,162880.0,11019.0
1680103411725608,122338.0,162884.0,11043.0
1680103411734608,122373.0,162873.0,11047.0
1680103411744608,122358.0,162834.0,11060.0
1680103411754608,122343.0,162880.0,11069.0
1680103411764608,122330.0,162889.0,11080.0
1680103411773608,122366.0,162887.0,11078.0
1680103411784608,122478.0,162905.0,11063.0
1680103411794608,122531.0,162907.0,11105.0
1680103411803608,122603.0,162892.0,11111.0
1680103411814608,122674.0,162981.0,11161.0
1680103411824608,122744.0,162934.0,11148.0
1680103411834608,122793.0,163026.0,11163.0
1680103411845608,122851.0,163056.0,11152.0
1680103411854608,122856.0,163030.0,11192.0
1680103411863608,122831.0,162983.0,11158.0
1680103411874608,122868.0,163004.0,11125.0
1680103411884608,122836.0,162984.0,11166.0
1680103411893608,122805.0,162912.0,11151.0
1680103411904608,122745.0,162966.0,11153.0
1680103411914608,122753.0,162938.0,11121.0
1680103411923608,122676.0,162896.0,11142.0
1680103411934608,122681.0,162907.0,11136.0
1680103411943608,122690.0,162936.0,11112.0
1680103411954608,122620.0,162939.0,11078.0
1680103411964608,122591.0,162929.0,11102.0
1680103411975607,122564.0,162971.0,11095.0
1680103411986607,122530.0,162904.0,11120.0
1680103411994608,122521.0,162929.0,11088.0
1680103412004608,122489.0,162936.0,11079.0
1680103412013608,122463.0,162945.0,11065.0
1680103412024608,122444.0,162936.0,11060.0
1680103412034608,122473.0,162955.0,11053.0
1680103412044608,122473.0,162933.0,11076.0
1680103412054607,122482.0,162937.0,11120.0
1680103412063608,122513.0,162900.0,11090.0
1680103412074607,122522.0,162990.0,11088.0
1680103412084607,122526.0,162974.0,11092.0
1680103412093608,122578.0,162994.0,11066.0
1680103412104607,122582.0,163000.0,11114.0
1680103412114607,122565.0,162982.0,11110.0
1680103412124607,122618.0,163036.0,11109.0
1680103412133607,122627.0,163030.0,11113.0
1680103412143607,122622.0,163008.0,11107.0
1680103412154607,122636.0,163050.0,11097.0
1680103412164607,122642.0,163039.0,11104.0
1680103412174608,122599.0,163055.0,11091.0
1680103412184608,122614.0,163040.0,11106.0
1680103412195608,122598.0,163042.0,11092.0
1680103412204608,122558.0,163037.0,11094.0
1680103412213608,122568.0,163054.0,11100.0
1680103412223608,122523.0,163060.0,11094.0
1680103412234608,122559.0,163036.0,11065.0
1680103412244608,122557.0,163036.0,11083.0
1680103412254608,122533.0,162992.0,11088.0
1680103412263608,122520.0,163040.0,11080.0
1680103412273608,122548.0,163053.0,11081.0
1680103412284608,122493.0,163054.0,11066.0
1680103412294608,122508.0,163028.0,11056.0
1680103412305607,122505.0,163050.0,11072.0
1680103412315607,122482.0,163046.0,11107.0
1680103412323607,122505.0,163011.0,11021.0
1680103412334607,122516.0,163023.0,11054.0
1680103412343607,122509.0,162990.0,11084.0
1680103412353608,122497.0,163034.0,11086.0
1680103412364607,122443.0,163047.0,11092.0
1680103412373607,122439.0,163023.0,11087.0
1680103412383607,122497.0,163022.0,11063.0
1680103412394607,122490.0,162997.0,11086.0
1680103412403607,122492.0,163040.0,11089.0
1680103412414607,122499.0,163010.0,11093.0
1680103412423607,122494.0,163068.0,11078.0
1680103412434607,122497.0,163081.0,11080.0
1680103412445607,122500.0,163001.0,11074.0
1680103412455607,122516.0,163051.0,11086.0
1680103412465607,122545.0,163061.0,11102.0
1680103412473607,122607.0,163064.0,11122.0
1680103412483607,122668.0,163098.0,11098.0
1680103412494607,122737.0,163110.0,11142.0
1680103412504607,122809.0,163116.0,11156.0
1680103412513607,122878.0,163180.0,11165.0
1680103412523607,122905.0,163169.0,11167.0
1680103412534608,122956.0,163192.0,11188.0
1680103412544608,122991.0,163165.0,11190.0
1680103412553608,122998.0,163132.0,11181.0
1680103412564607,122959.0,163161.0,11159.0
1680103412574607,122951.0,163197.0,11173.0
1680103412585607,122923.0,163152.0,11160.0
1680103412593607,122860.0,163135.0,11154.0
1680103412603607,122859.0,163106.0,11132.0
1680103412614607,122812.0,163041.0,11149.0
1680103412623607,122773.0,163082.0,11131.0
1680103412633607,122741.0,163052.0,11098.0
1680103412644607,122683.0,163013.0,11126.0
1680103412653607,122643.0,162963.0,11113.0
1680103412664607,122605.0,163029.0,11117.0
1680103412673607,122519.0,162994.0,11103.0
1680103412683607,122522.0,162983.0,11065.0
1680103412694607,122522.0,162980.0,11076.0
1680103412704607,122531.0,162999.0,11093.0
1680103412714608,122475.0,162928.0,11082.0
1680103412725607,122478.0,162971.0,11073.0
1680103412735607,122473.0,162977.0,11115.0
1680103412743607,122469.0,162978.0,11082.0
1680103412754607,122500.0,162959.0,11086.0
1680103412763607,122502.0,162923.0,11093.0
1680103412773607,122529.0,162983.0,11094.0
1680103412784607,122540.0,163004.0,11098.0
1680103412794607,122564.0,162984.0,11089.0
1680103412803607,122583.0,163013.0,11108.0
1680103412813607,122591.0,162959.0,11110.0
1680103412823607,122594.0,163019.0,11114.0
1680103412834607,122597.0,163017.0,11105.0
1680103412843607,122576.0,162990.0,11110.0
1680103412853607,122600.0,163015.0,11113.0
1680103412864607,122594.0,162992.0,11100.0
1680103412873607,122556.0,162981.0,11106.0
1680103412883607,122574.0,162960.0,11098.0
1680103412894608,122582.0,162983.0,11100.0
1680103412903608,122579.0,162981.0,11103.0
1680103412914608,122553.0,162987.0,11083.0
1680103412923608,122528.0,163016.0,11097.0
1680103412934608,122512.0,162955.0,11102.0
1680103412945608,122494.0,162961.0,11095.0
1680103412955608,122515.0,162940.0,11093.0
1680103412965608,122477.0,162919.0,11108.0
1680103412973607,122483.0,162932.0,11087.0
1680103412983607,122429.0,162945.0,11086.0
1680103412993607,122412.0,162935.0,11096.0
1680103413004607,122464.0,162916.0,11067.0
1680103413013607,122455.0,162895.0,11084.0
1680103413023607,122392.0,162936.0,11088.0
1680103413033607,122436.0,162925.0,11101.0
1680103413044607,122440.0,162917.0,11078.0
1680103413053607,122436.0,162881.0,11085.0
1680103413063607,122407.0,162935.0,11045.0
1680103413074608,122428.0,162927.0,11083.0
1680103413085608,122390.0,162949.0,11075.0
1680103413092608,122381.0,162896.0,11074.0
1680103413103608,122425.0,162911.0,11074.0
1680103413114607,122410.0,162871.0,11085.0
1680103413123607,122390.0,162909.0,11084.0
1680103413133607,122357.0,162906.0,11070.0
1680103413143607,122396.0,162895.0,11093.0
1680103413153607,122396.0,162932.0,11095.0
1680103413164607,122463.0,162915.0,11060.0
1680103413173607,122521.0,162933.0,11106.0
1680103413183607,122585.0,162967.0,11128.0
1680103413193607,122648.0,162941.0,11143.0
1680103413204607,122728.0,162999.0,11150.0
1680103413212607,122837.0,163032.0,11156.0
1680103413224607,122835.0,163035.0,11166.0
1680103413233607,122850.0,163016.0,11173.0
1680103413243607,122911.0,163031.0,11170.0
1680103413254608,122893.0,162991.0,11170.0
1680103413263608,122885.0,163020.0,11184.0
1680103413273608,122866.0,163029.0,11173.0
1680103413283608,122795.0,162973.0,11158.0
1680103413293608,122795.0,162968.0,11125.0
1680103413303608,122769.0,162937.0,11158.0
1680103413313608,122721.0,162902.0,11151.0
1680103413324607,122690.0,162894.0,11137.0
1680103413333608,122603.0,162838.0,11137.0
1680103413343608,122608.0,162876.0,11116.0
1680103413354607,122560.0,162879.0,11102.0
1680103413365607,122498.0,162846.0,11131.0
1680103413376607,122513.0,162835.0,11110.0
1680103413382607,122451.0,162788.0,11078.0
1680103413393607,122435.0,162822.0,11090.0
1680103413403607,122417.0,162806.0,11074.0
1680103413413607,122427.0,162815.0,11051.0
1680103413423607,122404.0,162809.0,11090.0
1680103413433608,122413.0,162829.0,11092.0
1680103413443608,122385.0,162837.0,11095.0
1680103413453608,122385.0,162813.0,11097.0
1680103413462608,122463.0,162807.0,11082.0
1680103413473608,122472.0,162821.0,11096.0
1680103413483608,122432.0,162857.0,11096.0
1680103413493608,122486.0,162836.0,11103.0
1680103413503608,122453.0,162865.0,11098.0
1680103413513608,122508.0,162858.0,11073.0
1680103413522608,122513.0,162858.0,11110.0
1680103413533608,122533.0,162861.0,11082.0
1680103413544608,122498.0,162874.0,11080.0
1680103413554607,122496.0,162876.0,11095.0
1680103413565607,122467.0,162799.0,11116.0
1680103413573607,122459.0,162863.0,11077.0
1680103413583607,122440.0,162847.0,11068.0
1680103413593607,122434.0,162856.0,11056.0
1680103413603607,122427.0,162826.0,11080.0
1680103413613608,122410.0,162817.0,11088.0
1680103413623607,122386.0,162866.0,11097.0
1680103413633607,122393.0,162863.0,11103.0
1680103413643607,122424.0,162818.0,11063.0
1680103413653607,122452.0,162834.0,11086.0
1680103413664607,122428.0,162840.0,11069.0
1680103413674607,122439.0,162821.0,11088.0
1680103413685607,122397.0,162825.0,11138.0
1680103413695607,122446.0,162798.0,11088.0
1680103413703607,122434.0,162775.0,11095.0
1680103413713607,122450.0,162823.0,11106.0
1680103413722607,122440.0,162787.0,11111.0
1680103413733607,122390.0,162806.0,11109.0
1680103413744607,122434.0,162786.0,11091.0
1680103413753607,122409.0,162743.0,11094.0
1680103413763607,122395.0,162779.0,11103.0
1680103413772607,122385.0,162785.0,11076.0
1680103413783607,122366.0,162725.0,11051.0
1680103413794608,122362.0,162765.0,11085.0
1680103413803608,122377.0,162769.0,11078.0
1680103413814608,122342.0,162780.0,11065.0
1680103413825608,122330.0,162755.0,11070.0
1680103413835608,122338.0,162797.0,11110.0
1680103413842608,122307.0,162752.0,11082.0
1680103413853608,122350.0,162752.0,11051.0
1680103413863608,122353.0,162743.0,11071.0
1680103413873607,122363.0,162720.0,11085.0
1680103413883607,122398.0,162750.0,11096.0
1680103413892608,122433.0,162796.0,11105.0
1680103413903607,122464.0,162821.0,11125.0
1680103413914607,122579.0,162821.0,11119.0
1680103413922607,122661.0,162809.0,11153.0
1680103413933607,122711.0,162869.0,11164.0
1680103413943607,122830.0,162885.0,11175.0
1680103413953607,122822.0,162892.0,11137.0
1680103413963607,122865.0,162904.0,11165.0
1680103413973608,122854.0,162922.0,11180.0
1680103413983608,122859.0,162858.0,11185.0
1680103413993608,122827.0,162844.0,11169.0
1680103414004608,122781.0,162751.0,11171.0
1680103414012607,122747.0,162839.0,11159.0
1680103414023607,122659.0,162813.0,11151.0
1680103414033607,122653.0,162751.0,11128.0
1680103414043607,122584.0,162787.0,11122.0
1680103414053607,122558.0,162710.0,11105.0
1680103414062607,122549.0,162767.0,11104.0
1680103414073607,122493.0,162704.0,11089.0
1680103414084607,122480.0,162742.0,11072.0
1680103414093607,122444.0,162733.0,11090.0
1680103414104607,122412.0,162717.0,11075.0
1680103414113607,122375.0,162690.0,11072.0
1680103414123607,122332.0,162723.0,11083.0
1680103414133607,122354.0,162719.0,11057.0
1680103414142607,122389.0,162693.0,11072.0
1680103414153608,122372.0,162698.0,11067.0
1680103414163608,122380.0,162713.0,11081.0
1680103414172608,122384.0,162720.0,11080.0
1680103414183608,122448.0,162673.0,11087.0
1680103414193608,122430.0,162642.0,11095.0
1680103414203608,122499.0,162687.0,11101.0
1680103414212608,122531.0,162673.0,11100.0
1680103414223608,122553.0,162694.0,11102.0
1680103414234608,122563.0,162687.0,11098.0
1680103414244608,122553.0,162703.0,11102.0
1680103414254608,122585.0,162585.0,11100.0
1680103414263608,122574.0,162664.0,11148.0
1680103414273608,122589.0,162633.0,11073.0
1680103414283608,122594.0,162611.0,11104.0
1680103414294608,122589.0,162602.0,11106.0
1680103414302607,122543.0,162627.0,11091.0
1680103414313607,122586.0,162602.0,11098.0
1680103414322607,122522.0,162580.0,11096.0
1680103414333608,122577.0,162556.0,11079.0
1680103414343608,122534.0,162556.0,11092.0
1680103414352608,122514.0,162524.0,11085.0
1680103414363608,122498.0,162545.0,11081.0
1680103414373607,122449.0,162539.0,11077.0
1680103414382608,122466.0,162510.0,11064.0
1680103414393607,122479.0,162496.0,11073.0
1680103414403607,122497.0,162509.0,11055.0
1680103414414607,122438.0,162522.0,11046.0
1680103414423607,122416.0,162495.0,11048.0
1680103414434607,122424.0,162512.0,11048.0
1680103414445607,122401.0,162469.0,11074.0
1680103414453607,122382.0,162511.0,11054.0
1680103414462607,122421.0,162506.0,11027.0
1680103414473607,122387.0,162499.0,11055.0
1680103414482607,122397.0,162531.0,11043.0
1680103414493607,122409.0,162572.0,11034.0
1680103414504607,122363.0,162539.0,11010.0
1680103414512608,122377.0,162545.0,11022.0
1680103414523608,122372.0,162533.0,11024.0
1680103414533608,122364.0,162549.0,11011.0
1680103414543608,122367.0,162549.0,11026.0
1680103414553608,122392.0,162600.0,11027.0
1680103414564607,122312.0,162650.0,11019.0
1680103414575607,122357.0,162587.0,11025.0
1680103414583607,122321.0,162541.0,11005.0
1680103414592607,122343.0,162609.0,11014.0
1680103414602607,122344.0,162629.0,11023.0
1680103414613607,122400.0,162627.0,10982.0
1680103414624607,122414.0,162635.0,11041.0
1680103414632607,122454.0,162638.0,11038.0
1680103414643607,122506.0,162647.0,11050.0
1680103414652607,122576.0,162612.0,11067.0
1680103414663607,122629.0,162697.0,11083.0
1680103414673607,122677.0,162724.0,11060.0
1680103414682607,122688.0,162730.0,11103.0
1680103414693608,122736.0,162753.0,11107.0
1680103414703608,122771.0,162756.0,11104.0
1680103414712608,122723.0,162757.0,11073.0
1680103414724608,122716.0,162760.0,11084.0
1680103414733608,122664.0,162759.0,11115.0
1680103414743608,122670.0,162757.0,11065.0
1680103414753608,122631.0,162718.0,11071.0
1680103414763608,122593.0,162700.0,11035.0
1680103414772608,122553.0,162661.0,11058.0
1680103414783608,122524.0,162680.0,11039.0
1680103414793608,122475.0,162652.0,11027.0
1680103414802608,122464.0,162640.0,11029.0
1680103414813608,122428.0,162615.0,11034.0
1680103414822608,122396.0,162575.0,11020.0
1680103414833608,122367.0,162623.0,11020.0
1680103414843608,122372.0,162585.0,11011.0
1680103414852608,122326.0,162555.0,11020.0
1680103414863608,122360.0,162582.0,11007.0
1680103414873608,122344.0,162570.0,11011.0
1680103414882608,122346.0,162513.0,10996.0
1680103414893608,122396.0,162594.0,10991.0
1680103414903608,122371.0,162581.0,11017.0
1680103414914608,122343.0,162588.0,11008.0
1680103414924608,122351.0,162566.0,11015.0
1680103414934608,122325.0,162579.0,11064.0
1680103414942608,122375.0,162568.0,11022.0
1680103414953607,122386.0,162572.0,11009.0
1680103414962607,122360.0,162543.0,11027.0
1680103414972607,122365.0,162542.0,11018.0
1680103414983607,122363.0,162627.0,11017.0
1680103414992607,122376.0,162608.0,10987.0
1680103415003607,122381.0,162630.0,11010.0
1680103415012607,122369.0,162593.0,11030.0
1680103415022607,122333.0,162634.0,11018.0
1680103415033607,122372.0,162663.0,11024.0
1680103415043607,122365.0,162646.0,11001.0
1680103415053608,122410.0,162674.0,11024.0
1680103415064607,122365.0,162635.0,11020.0
1680103415074607,122373.0,162649.0,11007.0
1680103415085607,122369.0,162698.0,11055.0
1680103415093607,122357.0,162688.0,11019.0
1680103415102607,122360.0,162690.0,11014.0
1680103415113607,122361.0,162686.0,11006.0
1680103415123607,122352.0,162731.0,11016.0
1680103415132607,122363.0,162751.0,11015.0
1680103415142607,122329.0,162719.0,11023.0
1680103415152607,122343.0,162737.0,11014.0
1680103415163607,122350.0,162693.0,11017.0
1680103415172607,122350.0,162720.0,10995.0
1680103415183607,122333.0,162688.0,10997.0
1680103415194607,122299.0,162704.0,11004.0
1680103415203607,122304.0,162684.0,11006.0
1680103415212607,122249.0,162673.0,11000.0
1680103415222607,122235.0,162697.0,11005.0
1680103415232608,122207.0,162672.0,10984.0
1680103415243608,122218.0,162666.0,11001.0
1680103415253608,122205.0,162669.0,10990.0
1680103415262608,122163.0,162648.0,10983.0
1680103415272608,122125.0,162699.0,10991.0
1680103415283608,122149.0,162693.0,10967.0
1680103415292608,122151.0,162694.0,10965.0
1680103415302608,122154.0,162683.0,10975.0
1680103415313608,122139.0,162744.0,10960.0
1680103415323608,122173.0,162789.0,10971.0
1680103415334607,122194.0,162741.0,10983.0
1680103415342607,122232.0,162807.0,10994.0
1680103415352607,122341.0,162823.0,10982.0
1680103415362607,122357.0,162863.0,11035.0
1680103415373607,122493.0,162880.0,11048.0
1680103415382607,122558.0,162884.0,11044.0
1680103415392607,122601.0,162961.0,11065.0
1680103415402607,122604.0,162937.0,11074.0
1680103415413608,122644.0,162926.0,11071.0
1680103415422608,122609.0,162897.0,11053.0
1680103415432608,122631.0,162901.0,11059.0
1680103415443608,122604.0,162939.0,11050.0
1680103415454608,122591.0,162921.0,11044.0
1680103415463608,122521.0,162942.0,11032.0
1680103415472608,122548.0,162892.0,11026.0
1680103415483608,122514.0,162862.0,11032.0
1680103415492608,122477.0,162885.0,11021.0
1680103415503608,122446.0,162865.0,11004.0
1680103415512608,122430.0,162848.0,11003.0
1680103415522608,122404.0,162798.0,11007.0
1680103415533608,122360.0,162855.0,10998.0
1680103415543608,122318.0,162842.0,10985.0
1680103415552608,122326.0,162811.0,10985.0
1680103415563608,122280.0,162786.0,10987.0
1680103415572608,122270.0,162758.0,10964.0
1680103415583608,122274.0,162828.0,10972.0
1680103415592608,122275.0,162831.0,10981.0
1680103415602608,122281.0,162850.0,10931.0
1680103415613608,122272.0,162856.0,10974.0
1680103415624607,122319.0,162891.0,10983.0
1680103415632607,122336.0,162832.0,11009.0
1680103415642607,122338.0,162815.0,10997.0
1680103415653607,122333.0,162838.0,11002.0
1680103415662607,122377.0,162849.0,11009.0
1680103415672607,122410.0,162840.0,10993.0
1680103415682607,122399.0,162837.0,11015.0
1680103415692607,122390.0,162818.0,11006.0
1680103415703607,122401.0,162876.0,11009.0
1680103415712607,122357.0,162859.0,11007.0
1680103415722607,122404.0,162812.0,10995.0
1680103415732607,122433.0,162856.0,11006.0
1680103415743607,122396.0,162857.0,10968.0
1680103415754607,122407.0,162827.0,10992.0
1680103415762607,122399.0,162776.0,10997.0
1680103415772608,122391.0,162793.0,11005.0
1680103415782608,122344.0,162786.0,11001.0
1680103415793608,122356.0,162746.0,10973.0
1680103415801607,122351.0,162746.0,10986.0
1680103415812607,122336.0,162725.0,10959.0
1680103415823607,122334.0,162717.0,10994.0
1680103415833607,122306.0,162748.0,10993.0
1680103415842607,122335.0,162652.0,10999.0
1680103415852607,122344.0,162703.0,10990.0
1680103415862607,122350.0,162640.0,10990.0
1680103415873607,122292.0,162663.0,10964.0
1680103415882607,122324.0,162731.0,10975.0
1680103415892607,122294.0,162597.0,10981.0
1680103415902607,122285.0,162666.0,10994.0
1680103415912607,122321.0,162615.0,10948.0
1680103415922607,122313.0,162617.0,10985.0
1680103415932607,122317.0,162605.0,10978.0
1680103415942607,122282.0,162588.0,10984.0
1680103415953608,122310.0,162582.0,10963.0
1680103415962608,122301.0,162545.0,10973.0
1680103415972608,122299.0,162593.0,10974.0
1680103415983608,122275.0,162619.0,10964.0
1680103415994608,122258.0,162579.0,10955.0
1680103416002607,122226.0,162568.0,10977.0
1680103416012607,122266.0,162548.0,10934.0
1680103416022607,122275.0,162578.0,10946.0
1680103416032607,122263.0,162540.0,10984.0
1680103416043607,122292.0,162601.0,10970.0
1680103416051607,122327.0,162623.0,10979.0
1680103416062607,122375.0,162630.0,10961.0
1680103416073607,122443.0,162641.0,11018.0
1680103416082607,122467.0,162639.0,11022.0
1680103416092607,122595.0,162692.0,11053.0
1680103416102607,122626.0,162749.0,11055.0
1680103416113607,122682.0,162764.0,11069.0
1680103416124607,122747.0,162748.0,11071.0
1680103416132608,122758.0,162750.0,11070.0
1680103416142608,122746.0,162775.0,11065.0
1680103416152608,122748.0,162764.0,11065.0
1680103416162608,122735.0,162761.0,11056.0
1680103416172608,122724.0,162728.0,11040.0
1680103416182608,122704.0,162663.0,11057.0
1680103416192608,122661.0,162714.0,11052.0
1680103416202607,122586.0,162699.0,11041.0
1680103416212607,122610.0,162684.0,11008.0
1680103416222607,122589.0,162654.0,11041.0
1680103416232607,122589.0,162664.0,11021.0
1680103416243607,122518.0,162660.0,10981.0
1680103416254607,122431.0,162636.0,11002.0
1680103416262607,122472.0,162626.0,10994.0
1680103416272607,122422.0,162620.0,11002.0
1680103416282607,122412.0,162639.0,10986.0
1680103416292607,122358.0,162642.0,10983.0
1680103416302607,122376.0,162643.0,10976.0
1680103416312608,122368.0,162612.0,10975.0
1680103416323608,122380.0,162642.0,10976.0
1680103416332608,122361.0,162633.0,10963.0
1680103416342608,122414.0,162699.0,10986.0
1680103416352608,122434.0,162706.0,10981.0
1680103416362608,122464.0,162656.0,10987.0
1680103416373607,122484.0,162735.0,11000.0
1680103416382608,122530.0,162744.0,10999.0
1680103416393607,122523.0,162713.0,11003.0
1680103416404607,122544.0,162785.0,10997.0
1680103416414607,122532.0,162780.0,11034.0
1680103416424607,122573.0,162762.0,11000.0
1680103416432607,122570.0,162753.0,11006.0
1680103416442607,122575.0,162743.0,11007.0
1680103416452607,122538.0,162769.0,11001.0
1680103416462607,122577.0,162740.0,10988.0
1680103416472607,122552.0,162739.0,10995.0
1680103416482607,122543.0,162730.0,10999.0
1680103416492608,122490.0,162748.0,11000.0
1680103416503608,122535.0,162714.0,10982.0
1680103416512608,122540.0,162695.0,10988.0
1680103416522608,122543.0,162765.0,10962.0
1680103416533608,122535.0,162746.0,10982.0
1680103416543608,122514.0,162772.0,10981.0
1680103416554607,122549.0,162736.0,10979.0
1680103416562607,122536.0,162731.0,10987.0
1680103416572607,122540.0,162741.0,10991.0
1680103416582607,122488.0,162725.0,10985.0
1680103416591607,122535.0,162724.0,10970.0
1680103416602607,122542.0,162701.0,10976.0
1680103416612607,122525.0,162766.0,10969.0
1680103416622607,122522.0,162778.0,10967.0
1680103416632607,122535.0,162793.0,10941.0
1680103416642607,122485.0,162810.0,10970.0
1680103416652607,122527.0,162834.0,10968.0
1680103416662607,122559.0,162862.0,10971.0
1680103416672608,122496.0,162861.0,10915.0
1680103416681608,122526.0,162879.0,10954.0
1680103416692608,122515.0,162901.0,10928.0
1680103416702607,122491.0,162934.0,10951.0
1680103416712607,122466.0,162976.0,10954.0
1680103416722607,122445.0,162985.0,10961.0
1680103416731608,122450.0,162993.0,10958.0
1680103416742607,122510.0,162998.0,10937.0
1680103416753607,122540.0,163005.0,10957.0
1680103416762607,122533.0,163105.0,10966.0
1680103416772607,122648.0,163114.0,10982.0
1680103416782607,122718.0,163180.0,11002.0
1680103416793607,122739.0,163192.0,10987.0
1680103416801607,122802.0,163249.0,11013.0
1680103416812607,122796.0,163236.0,11022.0
1680103416822607,122867.0,163255.0,11042.0
1680103416832607,122893.0,163234.0,11023.0
1680103416842607,122883.0,163342.0,11038.0
1680103416851608,122899.0,163314.0,10990.0
1680103416862608,122890.0,163295.0,11026.0
1680103416873607,122866.0,163310.0,11024.0
1680103416881607,122845.0,163248.0,11012.0
1680103416892607,122817.0,163248.0,11014.0
1680103416902607,122816.0,163286.0,11004.0
1680103416912607,122789.0,163238.0,10974.0
1680103416922607,122833.0,163255.0,10991.0
1680103416933607,122791.0,163231.0,11011.0
1680103416944607,122768.0,163230.0,11018.0
1680103416952607,122749.0,163160.0,10995.0
1680103416962607,122742.0,163186.0,11014.0
1680103416971607,122682.0,163167.0,11006.0
1680103416982607,122737.0,163154.0,10966.0
1680103416992607,122712.0,163127.0,11005.0
1680103417002607,122726.0,163145.0,10997.0
1680103417011607,122714.0,163146.0,11004.0
1680103417022607,122735.0,163150.0,10990.0
1680103417032608,122764.0,163119.0,10994.0
1680103417043608,122781.0,163159.0,11005.0
1680103417052608,122823.0,163192.0,11007.0
1680103417063608,122826.0,163166.0,11013.0
1680103417073608,122859.0,163200.0,11017.0
1680103417084607,122906.0,163196.0,11038.0
1680103417092607,122918.0,163205.0,11002.0
1680103417101607,122928.0,163195.0,11031.0
1680103417112607,122935.0,163204.0,11021.0
1680103417122607,122892.0,163206.0,11039.0
1680103417131607,122907.0,163198.0,11037.0
1680103417142607,122980.0,163187.0,11029.0
1680103417152607,122934.0,163145.0,11044.0
1680103417162607,123001.0,163149.0,11034.0
1680103417171607,123043.0,163207.0,11039.0
1680103417183607,123013.0,163201.0,10993.0
1680103417193607,122971.0,163203.0,11026.0
1680103417204607,123038.0,163183.0,11026.0
1680103417212608,123031.0,163153.0,11053.0
1680103417221608,123034.0,163126.0,11033.0
1680103417232608,123035.0,163141.0,11042.0
1680103417242608,123042.0,163174.0,11024.0
1680103417252608,123011.0,163187.0,11033.0
1680103417262608,123065.0,163145.0,11023.0
1680103417271608,123056.0,163136.0,11035.0
1680103417282608,123055.0,163166.0,11028.0
1680103417293608,123034.0,163142.0,11037.0
1680103417301607,123079.0,163140.0,11025.0
1680103417312607,123083.0,163163.0,11042.0
1680103417322607,123057.0,163119.0,11050.0
1680103417332607,123129.0,163158.0,11047.0
1680103417342607,123140.0,163119.0,11040.0
1680103417351607,123143.0,163101.0,11040.0
1680103417362607,123148.0,163162.0,11006.0
1680103417373607,123127.0,163160.0,11029.0
1680103417382607,123132.0,163180.0,11037.0
1680103417393608,123161.0,163138.0,11027.0
1680103417403608,123168.0,163156.0,11035.0
1680103417414608,123182.0,163154.0,11050.0
1680103417421608,123184.0,163134.0,11046.0
1680103417432608,123205.0,163163.0,11055.0
1680103417441608,123199.0,163156.0,11060.0
1680103417452607,123299.0,163157.0,11030.0
1680103417462607,123345.0,163168.0,11061.0
1680103417471608,123412.0,163172.0,11104.0
1680103417482607,123495.0,163250.0,11109.0
1680103417492607,123531.0,163285.0,11131.0
1680103417502607,123675.0,163273.0,11151.0
1680103417512607,123745.0,163289.0,11139.0
1680103417522607,123827.0,163325.0,11166.0
1680103417533607,123845.0,163307.0,11163.0
1680103417543607,123859.0,163347.0,11164.0
1680103417551607,123829.0,163322.0,11204.0
1680103417562607,123861.0,163301.0,11148.0
1680103417572608,123843.0,163238.0,11159.0
1680103417582608,123822.0,163309.0,11150.0
1680103417591608,123801.0,163283.0,11157.0
1680103417602608,123734.0,163271.0,11134.0
1680103417612608,123764.0,163259.0,11121.0
1680103417622608,123728.0,163221.0,11126.0
1680103417631608,123703.0,163267.0,11120.0
1680103417641608,123617.0,163246.0,11108.0
1680103417652608,123651.0,163187.0,11059.0
1680103417662608,123591.0,163219.0,11105.0
1680103417671608,123580.0,163213.0,11089.0
1680103417683608,123515.0,163196.0,11045.0
1680103417691608,123453.0,163185.0,11086.0
1680103417702607,123447.0,163169.0,11060.0
1680103417712607,123455.0,163203.0,11070.0
1680103417721608,123442.0,163146.0,11065.0
1680103417732607,123445.0,163204.0,11067.0
1680103417742607,123442.0,163225.0,11058.0
1680103417752608,123415.0,163211.0,11075.0
1680103417762608,123459.0,163171.0,11071.0
1680103417771608,123493.0,163252.0,11082.0
1680103417782608,123454.0,163271.0,11030.0
1680103417793608,123455.0,163279.0,11072.0
1680103417803608,123443.0,163299.0,11074.0
1680103417811607,123421.0,163281.0,11061.0
1680103417822607,123418.0,163301.0,11040.0
1680103417832607,123373.0,163297.0,11079.0
1680103417841607,123343.0,163307.0,11064.0
1680103417851607,123286.0,163335.0,11060.0
1680103417862607,123287.0,163315.0,11050.0
1680103417872607,123241.0,163264.0,11045.0
1680103417881607,123214.0,163335.0,11038.0
1680103417892607,123163.0,163331.0,11003.0
1680103417901607,123126.0,163278.0,11024.0
1680103417912607,123092.0,163326.0,11004.0
1680103417921607,123104.0,163324.0,11027.0
1680103417932608,122992.0,163324.0,10968.0
1680103417943607,122955.0,163330.0,10997.0
1680103417954607,122951.0,163306.0,11034.0
1680103417963607,122964.0,163291.0,10986.0
1680103417971607,122941.0,163260.0,10992.0
1680103417982607,122901.0,163313.0,10986.0
1680103417991607,122865.0,163276.0,11004.0
1680103418002607,122863.0,163298.0,10965.0
1680103418011607,122835.0,163272.0,10987.0
1680103418021607,122818.0,163271.0,10984.0
1680103418032607,122797.0,163256.0,10986.0
1680103418042607,122808.0,163254.0,10971.0
1680103418051607,122772.0,163211.0,10981.0
1680103418061607,122762.0,163264.0,10967.0
1680103418071607,122743.0,163225.0,10972.0
1680103418082607,122701.0,163217.0,10974.0
1680103418091607,122719.0,163163.0,10983.0
1680103418101607,122750.0,163230.0,10970.0
1680103418112608,122695.0,163217.0,10924.0
1680103418122608,122653.0,163210.0,10954.0
1680103418132608,122655.0,163248.0,10963.0
1680103418143607,122667.0,163189.0,10962.0
1680103418152608,122652.0,163219.0,10997.0
1680103418161608,122618.0,163167.0,10975.0
1680103418171608,122670.0,163188.0,10974.0
1680103418181608,122706.0,163211.0,10983.0
1680103418191608,122753.0,163236.0,10970.0
1680103418202607,122806.0,163231.0,11015.0
1680103418212607,122874.0,163258.0,11032.0
1680103418221608,122895.0,163296.0,11048.0
1680103418232607,122999.0,163294.0,11062.0
1680103418241608,123059.0,163254.0,11070.0
