time,ecg,hr,rr,marker
1680103775493204316,0.23700000000000002,76
1680103775500900356,0.254
1680103775508596396,0.265
1680103775516292436,0.256
1680103775523988476,0.252
1680103775531684516,0.25
1680103775539380556,0.225
1680103775547076596,0.164
1680103775554772636,0.075
1680103775562468676,0.002
1680103775570164716,-0.029
1680103775577860756,-0.054
1680103775585556796,-0.077
1680103775593252836,-0.063,,786
1680103775600948876,-0.044
1680103775608644916,-0.052000000000000005
1680103775616340956,-0.05
1680103775624036996,-0.027
1680103775631733036,-0.006
1680103775639429076,0.002
1680103775647125116,-0.004
1680103775654821156,-0.006
1680103775662517196,0.01
1680103775670213236,0.018000000000000002
1680103775677909276,0.046
1680103775685605316,0.096
1680103775693301356,0.13
1680103775700997396,0.153
1680103775708693436,0.183
1680103775716389476,0.191
1680103775724085516,0.187
1680103775731781556,0.195
1680103775739477596,0.227
1680103775747173636,0.246
1680103775754869676,0.233
1680103775762565716,0.218
1680103775770261756,0.222
1680103775777957796,0.231
1680103775785653836,0.216
1680103775793349876,0.195
1680103775801045916,0.176
1680103775808741956,0.145
1680103775816437996,0.11900000000000001
1680103775824134036,0.117
1680103775831830076,0.122
1680103775839526116,0.092
1680103775847222156,0.042
1680103775854918196,0.008
1680103775862614236,-0.018000000000000002
1680103775870310276,-0.042
1680103775878006316,-0.052000000000000005
1680103775885702356,-0.073
1680103775893398396,-0.113
1680103775901094436,-0.153
1680103775908790476,-0.17
1680103775916486516,-0.161
1680103775924182556,-0.14300000000000002
1680103775931878596,-0.128
1680103775939574636,-0.13
1680103775947270676,-0.138
1680103775954966716,-0.128
1680103775962662756,-0.111
1680103775970358796,-0.107
1680103775978054836,-0.09
1680103775985750876,-0.065
1680103775993446916,-0.061
1680103776001142956,-0.063
1680103776008838996,-0.042
1680103776016535036,-0.029
1680103776024231076,-0.042
1680103776031927116,-0.058
1680103776039623156,-0.065
1680103776047319196,-0.035
1680103776055015264,0.018000000000000002
1680103776062711304,0.016
1680103776070407344,-0.042
1680103776078103384,-0.069
1680103776085799424,-0.098
1680103776093495464,-0.145
1680103776101191504,-0.136
1680103776108887544,-0.1
1680103776116583584,-0.094
1680103776124279624,-0.09
1680103776131975664,-0.21
1680103776139671704,-0.652
1680103776147367744,-1.222
1680103776155063784,-1.323
1680103776162759824,-0.591
1680103776170455864,0.309
1680103776178151904,0.355
1680103776185847944,-0.048
1680103776193543984,-0.05
1680103776201240024,0.09
1680103776208936064,0.05
1680103776216632104,0.035
1680103776224328144,0.079
1680103776232024184,0.075
1680103776239720224,0.067
1680103776247416264,0.094
1680103776255112304,0.11900000000000001
1680103776262808344,0.117
1680103776270504384,0.105
1680103776278200424,0.105
1680103776285896464,0.126
1680103776293592504,0.136
1680103776301288544,0.145
1680103776308984584,0.155
1680103776316680624,0.151
1680103776324376664,0.14
1680103776332072704,0.14
1680103776339768744,0.155
1680103776347464784,0.168
1680103776355160824,0.157
1680103776362856864,0.14
1680103776370552904,0.14300000000000002,,779
1680103776378248944,0.147
1680103776385944984,0.124
1680103776393641024,0.115
1680103776401337064,0.14300000000000002
1680103776409033104,0.153
1680103776416729144,0.136
1680103776424425184,0.149
1680103776432121224,0.189
1680103776439817264,0.218
1680103776447513304,0.231
1680103776455209344,0.252
1680103776462905384,0.28600000000000003
1680103776470601424,0.315
1680103776478297464,0.33
1680103776485993504,0.34
1680103776493689544,0.355
1680103776501385584,0.355
1680103776509081624,0.34
1680103776516777664,0.342
1680103776524473704,0.361
1680103776532169744,0.363
1680103776539865784,0.34700000000000003
1680103776547561824,0.338
1680103776555257864,0.34
1680103776562953904,0.311
1680103776570649944,0.23700000000000002
1680103776578345984,0.18
1680103776586042024,0.157
1680103776593738064,0.126
1680103776601434104,0.092
1680103776609130144,0.092
1680103776616826212,0.082,76
1680103776624522252,0.035
1680103776632218292,-0.021
1680103776639914332,-0.075
1680103776647610372,-0.11900000000000001
1680103776655306412,-0.166
1680103776663002452,-0.214
1680103776670698492,-0.218
1680103776678394532,-0.212
1680103776686090572,-0.23900000000000002
1680103776693786612,-0.246
1680103776701482652,-0.214
1680103776709178692,-0.201
1680103776716874732,-0.20800000000000002
1680103776724570772,-0.195
1680103776732266812,-0.18
1680103776739962852,-0.176
1680103776747658892,-0.164
1680103776755354932,-0.14
1680103776763050972,-0.115
1680103776770747012,-0.109
1680103776778443052,-0.14
1680103776786139092,-0.159
1680103776793835132,-0.145
1680103776801531172,-0.126
1680103776809227212,-0.1
1680103776816923252,-0.056
1680103776824619292,-0.037
1680103776832315332,-0.042
1680103776840011372,-0.037
1680103776847707412,-0.014
1680103776855403452,0.023
1680103776863099492,0.031
1680103776870795532,0.002
1680103776878491572,-0.008
1680103776886187612,-0.021
1680103776893883652,-0.22
1680103776901579692,-0.7020000000000001
1680103776909275732,-1.169
1680103776916971772,-1.035
1680103776924667812,-0.151
1680103776932363852,0.553
1680103776940059892,0.376
1680103776947755932,0.058
1680103776955451972,0.132
1680103776963148012,0.185
1680103776970844052,0.122
1680103776978540092,0.151
1680103776986236132,0.191
1680103776993932172,0.17200000000000001
1680103777001628212,0.17400000000000002
1680103777009324252,0.185
1680103777017020292,0.168
1680103777024716332,0.17200000000000001
1680103777032412372,0.20800000000000002
1680103777040108412,0.22
1680103777047804452,0.201
1680103777055500492,0.187
1680103777063196532,0.17400000000000002
1680103777070892572,0.115
1680103777078588612,0.044
1680103777086284652,0.044
1680103777093980692,0.061
1680103777101676732,0.035
1680103777109372772,0.014
1680103777117068812,0.006
1680103777124764852,-0.025
1680103777132460892,-0.052000000000000005
1680103777140156932,-0.046
1680103777147852972,-0.042
1680103777155549012,-0.031
1680103777163245052,-0.012,,793
1680103777170941092,-0.002
1680103777178637162,0.014,76
1680103777186333202,0.044
1680103777194029242,0.052000000000000005
1680103777201725282,0.061
1680103777209421322,0.109
1680103777217117362,0.164
1680103777224813402,0.191
1680103777232509442,0.21
1680103777240205482,0.23700000000000002
1680103777247901522,0.252
1680103777255597562,0.218
1680103777263293602,0.17200000000000001
1680103777270989642,0.178
1680103777278685682,0.20400000000000001
1680103777286381722,0.18
1680103777294077762,0.159
1680103777301773802,0.178
1680103777309469842,0.193
1680103777317165882,0.187
1680103777324861922,0.189
1680103777332557962,0.20400000000000001
1680103777340254002,0.21
1680103777347950042,0.20800000000000002
1680103777355646082,0.214
1680103777363342122,0.212
1680103777371038162,0.155
1680103777378734202,0.082
1680103777386430242,0.075
1680103777394126282,0.1
1680103777401822322,0.09
1680103777409518362,0.063
1680103777417214402,0.042
1680103777424910442,0.014
1680103777432606482,-0.031
1680103777440302522,-0.065
1680103777447998562,-0.065
1680103777455694602,-0.058
1680103777463390642,-0.063
1680103777471086682,-0.073
1680103777478782722,-0.075
1680103777486478762,-0.058
1680103777494174802,-0.037
1680103777501870842,-0.031
1680103777509566882,-0.039
1680103777517262922,-0.063
1680103777524958962,-0.088
1680103777532655002,-0.09
1680103777540351042,-0.061
1680103777548047082,-0.014
1680103777555743122,0.012
1680103777563439162,0.004
1680103777571135202,-0.044
1680103777578831242,-0.094
1680103777586527282,-0.10300000000000001
1680103777594223322,-0.088
1680103777601919362,-0.084
1680103777609615402,-0.088
1680103777617311442,-0.094
1680103777625007482,-0.13
1680103777632703522,-0.33
1680103777640399562,-0.795
1680103777648095602,-1.23
1680103777655791642,-0.992
1680103777663487682,-0.033
1680103777671183722,0.5760000000000001
1680103777678879762,0.307
1680103777686575802,0.018000000000000002
1680103777694271842,0.105
1680103777701967882,0.138
1680103777709663922,0.079
1680103777717359962,0.107
1680103777725056002,0.147
1680103777732752042,0.14300000000000002
1680103777740448110,0.145
1680103777748144150,0.151
1680103777755840190,0.153
1680103777763536230,0.159
1680103777771232270,0.164
1680103777778928310,0.17200000000000001
1680103777786624350,0.17400000000000002
1680103777794320390,0.115
1680103777802016430,0.018000000000000002
1680103777809712470,-0.006
1680103777817408510,0.027
1680103777825104550,0.029
1680103777832800590,0.004
1680103777840496630,-0.008
1680103777848192670,0.0
1680103777855888710,0.01
1680103777863584750,-0.006
1680103777871280790,-0.029
1680103777878976830,-0.021
1680103777886672870,-0.014
1680103777894368910,-0.016
1680103777902064950,0.004
1680103777909760990,0.029
1680103777917457030,0.048
1680103777925153070,0.075
1680103777932849110,0.109
1680103777940545150,0.136
1680103777948241190,0.161
1680103777955937230,0.195
1680103777963633270,0.244,,798
1680103777971329310,0.28600000000000003
1680103777979025350,0.28300000000000003
1680103777986721390,0.267
1680103777994417430,0.28300000000000003
1680103778002113470,0.315
1680103778009809510,0.326
1680103778017505550,0.311
1680103778025201590,0.307
1680103778032897630,0.328
1680103778040593670,0.326
1680103778048289710,0.309
1680103778055985750,0.338
1680103778063681790,0.355
1680103778071377830,0.298
1680103778079073870,0.218
1680103778086769910,0.17400000000000002
1680103778094465950,0.18
1680103778102161990,0.183
1680103778109858030,0.122
1680103778117554070,0.063
1680103778125250110,0.061
1680103778132946150,0.075
1680103778140642190,0.069
1680103778148338230,0.069
1680103778156034270,0.096
1680103778163730310,0.105
1680103778171426350,0.052000000000000005
1680103778179122390,0.008
1680103778186818430,0.037
1680103778194514470,0.077
1680103778202210510,0.052000000000000005
1680103778209906550,-0.002
1680103778217602590,-0.025
1680103778225298630,-0.048
1680103778232994670,-0.088
1680103778240690710,-0.088
1680103778248386750,-0.065
1680103778256082790,-0.107
1680103778263778830,-0.17400000000000002
1680103778271474870,-0.176
1680103778279170910,-0.155
1680103778286866950,-0.161
1680103778294562990,-0.128
1680103778302259058,-0.067,76
1680103778309955098,-0.07100000000000001
1680103778317651138,-0.098
1680103778325347178,-0.07100000000000001
1680103778333043218,-0.05
1680103778340739258,-0.079
1680103778348435298,-0.109
1680103778356131338,-0.111
1680103778363827378,-0.126
1680103778371523418,-0.23900000000000002
1680103778379219458,-0.5740000000000001
1680103778386915498,-1.093
1680103778394611538,-1.411
1680103778402307578,-0.971
1680103778410003618,0.002
1680103778417699658,0.376
1680103778425395698,0.01
1680103778433091738,-0.14300000000000002
1680103778440787778,0.006
1680103778448483818,0.0
1680103778456179858,-0.061
1680103778463875898,-0.023
1680103778471571938,0.014
1680103778479267978,0.023
1680103778486964018,0.021
1680103778494660058,0.023
1680103778502356098,0.061
1680103778510052138,0.092
1680103778517748178,0.069
1680103778525444218,0.046
1680103778533140258,0.063
1680103778540836298,0.092
1680103778548532338,0.105
1680103778556228378,0.111
1680103778563924418,0.11900000000000001
1680103778571620458,0.117
1680103778579316498,0.073
1680103778587012538,0.0
1680103778594708578,-0.061
1680103778602404618,-0.111
1680103778610100658,-0.14300000000000002
1680103778617796698,-0.13
1680103778625492738,-0.10300000000000001
1680103778633188778,-0.098
1680103778640884818,-0.10300000000000001
1680103778648580858,-0.079
1680103778656276898,-0.033
1680103778663972938,-0.014
1680103778671668978,-0.046
1680103778679365018,-0.018000000000000002
1680103778687061058,0.077
1680103778694757098,0.113
1680103778702453138,0.113
1680103778710149178,0.161
1680103778717845218,0.189
1680103778725541258,0.168
1680103778733237298,0.18,,774
1680103778740933338,0.229
1680103778748629378,0.252
1680103778756325418,0.244
1680103778764021458,0.246
1680103778771717498,0.256
1680103778779413538,0.248
1680103778787109578,0.22
1680103778794805618,0.20800000000000002
1680103778802501658,0.231
1680103778810197698,0.244
1680103778817893738,0.20600000000000002
1680103778825589778,0.218
1680103778833285818,0.302
1680103778840981858,0.298
1680103778848677898,0.218
1680103778856373938,0.197
1680103778864070006,0.216
1680103778871766464,0.222
1680103778879462922,0.225
1680103778887159380,0.231
1680103778894855838,0.23900000000000002
1680103778902552296,0.212
1680103778910248754,0.147
1680103778917945212,0.115
1680103778925641670,0.14300000000000002
1680103778933338128,0.178
1680103778941034586,0.155
1680103778948731044,0.096
1680103778956427502,0.07100000000000001
1680103778964123960,0.08600000000000001
1680103778971820418,0.088
1680103778979516876,0.067
1680103778987213334,0.039
1680103778994909792,0.0
1680103779002606250,-0.065
1680103779010302708,-0.107
1680103779017999166,-0.111
1680103779025695624,-0.14
1680103779033392082,-0.153
1680103779041088540,-0.098
1680103779048784998,-0.069
1680103779056481456,-0.1
1680103779064177914,-0.098
1680103779071874372,-0.058
1680103779079570830,-0.075
1680103779087267288,-0.178
1680103779094963746,-0.273
1680103779102660204,-0.262
1680103779110356662,-0.193
1680103779118053120,-0.229
1680103779125749578,-0.528
1680103779133446036,-1.068
1680103779141142494,-1.426
1680103779148838952,-0.99
1680103779156535410,0.014
1680103779164231868,0.418
1680103779171928326,0.048
1680103779179624784,-0.147
1680103779187321242,-0.014
1680103779195017700,0.01
1680103779202714158,-0.027
1680103779210410616,0.004
1680103779218107074,0.033
1680103779225803532,0.033
1680103779233499990,0.044
1680103779241196448,0.05
1680103779248892906,0.063
1680103779256589364,0.092
1680103779264285822,0.096
1680103779271982280,0.075
1680103779279678738,0.08600000000000001
1680103779287375196,0.115
1680103779295071654,0.113
1680103779302768112,0.107
1680103779310464570,0.11900000000000001
1680103779318161028,0.126
1680103779325857486,0.11900000000000001
1680103779333553944,0.1
1680103779341250402,0.069
1680103779348946860,0.058
1680103779356643318,0.056
1680103779364339776,0.035
1680103779372036234,0.035
1680103779379732692,0.063
1680103779387429150,0.075
1680103779395125608,0.08600000000000001
1680103779402822066,0.107
1680103779410518524,0.109
1680103779418214982,0.105
1680103779425911472,0.138,76
1680103779433607512,0.195
1680103779441303552,0.23900000000000002
1680103779448999592,0.256
1680103779456695632,0.265
1680103779464391672,0.28600000000000003
1680103779472087712,0.281
1680103779479783752,0.23500000000000001
1680103779487479792,0.216
1680103779495175832,0.233
1680103779502871872,0.22,,771
1680103779510567912,0.20400000000000001
1680103779518263952,0.218
1680103779525959992,0.23500000000000001
1680103779533656032,0.23700000000000002
1680103779541352072,0.233
1680103779549048112,0.233
1680103779556744152,0.23700000000000002
1680103779564440192,0.23700000000000002
1680103779572136232,0.23500000000000001
1680103779579832272,0.246
1680103779587528312,0.216
1680103779595224352,0.13
1680103779602920392,0.09
1680103779610616432,0.115
1680103779618312472,0.126
1680103779626008512,0.117
1680103779633704552,0.122
1680103779641400592,0.13
1680103779649096632,0.147
1680103779656792672,0.164
1680103779664488712,0.166
1680103779672184752,0.183
1680103779679880792,0.20400000000000001
1680103779687576832,0.189
1680103779695272872,0.18
1680103779702968912,0.21
1680103779710664952,0.222
1680103779718360992,0.189
1680103779726057032,0.17
1680103779733753072,0.17400000000000002
1680103779741449112,0.17
1680103779749145152,0.145
1680103779756841192,0.098
1680103779764537232,0.063
1680103779772233272,0.014
1680103779779929312,-0.063
1680103779787625352,-0.079
1680103779795321392,-0.025
1680103779803017432,-0.012
1680103779810713472,-0.037
1680103779818409512,-0.033
1680103779826105552,-0.046
1680103779833801592,-0.111
1680103779841497632,-0.153
1680103779849193672,-0.145
1680103779856889712,-0.126
1680103779864585752,-0.105
1680103779872281792,-0.17400000000000002
1680103779879977832,-0.515
1680103779887673872,-1.039
1680103779895369912,-1.27
1680103779903065952,-0.711
1680103779910761992,0.23700000000000002
1680103779918458032,0.47500000000000003
1680103779926154072,0.063
1680103779933850112,-0.084
1680103779941546152,0.033
1680103779949242192,0.029
1680103779956938232,0.006
1680103779964634272,0.067
1680103779972330312,0.096
1680103779980026352,0.079
1680103779987722420,0.07100000000000001
1680103779995418112,0.079
1680103780003113804,0.084
1680103780010809496,0.054
1680103780018505188,-0.006
1680103780026200880,-0.037
1680103780033896572,-0.01
1680103780041592264,0.01
1680103780049287956,-0.018000000000000002
1680103780056983648,-0.044
1680103780064679340,-0.029
1680103780072375032,-0.008
1680103780080070724,-0.035
1680103780087766416,-0.094
1680103780095462108,-0.155
1680103780103157800,-0.216
1680103780110853492,-0.23900000000000002
1680103780118549184,-0.218
1680103780126244876,-0.189
1680103780133940568,-0.168
1680103780141636260,-0.17
1680103780149331952,-0.164
1680103780157027644,-0.138
1680103780164723336,-0.11900000000000001
1680103780172419028,-0.105
1680103780180114720,-0.058
1680103780187810412,-0.008
1680103780195506104,0.01
1680103780203201796,0.037
1680103780210897488,0.096
1680103780218593180,0.14
1680103780226288872,0.161
1680103780233984564,0.168
1680103780241680256,0.17400000000000002
1680103780249375948,0.183
1680103780257071640,0.176
1680103780264767332,0.17200000000000001,,760
1680103780272463024,0.199
1680103780280158716,0.227
1680103780287854408,0.20600000000000002
1680103780295550100,0.185
1680103780303245792,0.218
1680103780310941484,0.258
1680103780318637176,0.265
1680103780326332868,0.23500000000000001
1680103780334028560,0.193
1680103780341724252,0.185
1680103780349419944,0.189
1680103780357115636,0.189
1680103780364811328,0.201
1680103780372507020,0.22
1680103780380202712,0.225
1680103780387898404,0.222
1680103780395594096,0.225
1680103780403289788,0.227
1680103780410985480,0.241
1680103780418681172,0.271
1680103780426376864,0.273
1680103780434072556,0.25
1680103780441768248,0.254
1680103780449463940,0.281
1680103780457159632,0.294
1680103780464855324,0.281
1680103780472551016,0.254
1680103780480246708,0.218
1680103780487942400,0.195
1680103780495638092,0.17400000000000002
1680103780503333784,0.14
1680103780511029476,0.109
1680103780518725168,0.096
1680103780526420860,0.082
1680103780534116552,0.039
1680103780541812244,0.006
1680103780549507938,0.004,77
1680103780557203908,-0.004
1680103780564899878,-0.048
1680103780572595848,-0.098
1680103780580291818,-0.117
1680103780587987788,-0.134
1680103780595683758,-0.229
1680103780603379728,-0.498
1680103780611075698,-1.02
1680103780618771668,-1.537
1680103780626467638,-1.377
1680103780634163608,-0.424
1680103780641859578,0.23500000000000001
1680103780649555548,-0.021
1680103780657251518,-0.34
1680103780664947488,-0.26
1680103780672643458,-0.218
1680103780680339428,-0.277
1680103780688035398,-0.246
1680103780695731368,-0.195
1680103780703427338,-0.20800000000000002
1680103780711123308,-0.222
1680103780718819278,-0.195
1680103780726515248,-0.164
1680103780734211218,-0.157
1680103780741907188,-0.159
1680103780749603158,-0.151
1680103780757299128,-0.128
1680103780764995098,-0.111
1680103780772691068,-0.105
1680103780780387038,-0.075
1680103780788083008,-0.052000000000000005
1680103780795778978,-0.075
1680103780803474948,-0.088
1680103780811170918,-0.077
1680103780818866888,-0.105
1680103780826562858,-0.151
1680103780834258828,-0.153
1680103780841954798,-0.134
1680103780849650768,-0.134
1680103780857346738,-0.124
1680103780865042708,-0.094
1680103780872738678,-0.067
1680103780880434648,-0.054
1680103780888130618,-0.054
1680103780895826588,-0.042
1680103780903522558,-0.004
1680103780911218528,0.046
1680103780918914498,0.08600000000000001
1680103780926610468,0.126
1680103780934306438,0.166
1680103780942002408,0.18
1680103780949698378,0.183
1680103780957394348,0.201
1680103780965090318,0.233
1680103780972786288,0.262
1680103780980482258,0.265
1680103780988178228,0.265
1680103780995874198,0.277
1680103781003570168,0.277,,738
1680103781011266138,0.26
1680103781018962108,0.265
1680103781026658078,0.281
1680103781034354048,0.273
1680103781042050018,0.252
1680103781049745988,0.265
1680103781057441958,0.28300000000000003
1680103781065137928,0.256
1680103781072833898,0.214
1680103781080529868,0.20800000000000002
1680103781088225838,0.199
1680103781095921808,0.145
1680103781103617778,0.094
1680103781111313800,0.111
1680103781119010258,0.138
1680103781126706716,0.111
1680103781134403174,0.105
1680103781142099632,0.145
1680103781149796090,0.17
1680103781157492548,0.159
1680103781165189006,0.14
1680103781172885464,0.147
1680103781180581922,0.149
1680103781188278380,0.109
1680103781195974838,0.073
1680103781203671296,0.07100000000000001
1680103781211367754,0.039
1680103781219064212,-0.016
1680103781226760670,-0.021
1680103781234457128,0.014
1680103781242153586,0.031
1680103781249850044,0.018000000000000002
1680103781257546502,-0.023
1680103781265242960,-0.054
1680103781272939418,-0.084
1680103781280635876,-0.13
1680103781288332334,-0.14300000000000002
1680103781296028792,-0.132
1680103781303725250,-0.149
1680103781311421708,-0.161
1680103781319118166,-0.212
1680103781326814624,-0.509
1680103781334511082,-1.066
1680103781342207540,-1.441
1680103781349903998,-1.02
1680103781357600456,-0.008
1680103781365296914,0.41400000000000003
1680103781372993372,0.027
1680103781380689830,-0.159
1680103781388386288,-0.012
1680103781396082746,-0.031
1680103781403779204,-0.092
1680103781411475662,-0.025
1680103781419172120,0.004
1680103781426868578,-0.021
1680103781434565036,-0.008
1680103781442261494,0.01
1680103781449957952,0.004
1680103781457654410,0.002
1680103781465350868,0.014
1680103781473047326,0.033
1680103781480743784,0.037
1680103781488440242,0.027
1680103781496136700,0.029
1680103781503833158,0.05
1680103781511529616,0.063
1680103781519226074,0.061
1680103781526922532,0.061
1680103781534618990,0.065
1680103781542315448,0.058
1680103781550011906,0.037
1680103781557708364,0.006
1680103781565404822,-0.01
1680103781573101280,-0.012
1680103781580797738,-0.021
1680103781588494196,-0.01
1680103781596190654,-0.018000000000000002
1680103781603887112,-0.079
1680103781611583570,-0.10300000000000001
1680103781619280028,-0.063
1680103781626976486,-0.046
1680103781634672944,-0.048
1680103781642369402,-0.01
1680103781650065860,0.042
1680103781657762318,0.082
1680103781665458776,0.105
1680103781673155266,0.109,78
1680103781680851306,0.122
1680103781688547346,0.147
1680103781696243386,0.149
1680103781703939426,0.153
1680103781711635466,0.176
1680103781719331506,0.153
1680103781727027546,0.088
1680103781734723586,0.054
1680103781742419626,0.067
1680103781750115666,0.075,,745
1680103781757811706,0.061
1680103781765507746,0.048
1680103781773203786,0.052000000000000005
1680103781780899826,0.07100000000000001
1680103781788595866,0.088
1680103781796291906,0.096
1680103781803987946,0.088
1680103781811683986,0.048
1680103781819380026,0.008
1680103781827076066,0.027
1680103781834772106,0.067
1680103781842468146,0.07100000000000001
1680103781850164186,0.061
1680103781857860226,0.065
1680103781865556266,0.094
1680103781873252306,0.128
1680103781880948346,0.14
1680103781888644386,0.147
1680103781896340426,0.17400000000000002
1680103781904036466,0.183
1680103781911732506,0.161
1680103781919428546,0.18
1680103781927124586,0.218
1680103781934820626,0.201
1680103781942516666,0.168
1680103781950212706,0.17
1680103781957908746,0.155
1680103781965604786,0.124
1680103781973300826,0.149
1680103781980996866,0.195
1680103781988692906,0.183
1680103781996388946,0.136
1680103782004084986,0.113
1680103782011781026,0.092
1680103782019477066,0.048
1680103782027173106,0.023
1680103782034869146,0.021
1680103782042565186,-0.004
1680103782050261226,-0.098
1680103782057957266,-0.401
1680103782065653306,-0.9380000000000001
1680103782073349346,-1.333
1680103782081045386,-0.992
1680103782088741426,-0.029
1680103782096437466,0.422
1680103782104133506,0.008
1680103782111829546,-0.267
1680103782119525586,-0.13
1680103782127221626,-0.109
1680103782134917666,-0.189
1680103782142613706,-0.17
1680103782150309746,-0.147
1680103782158005786,-0.149
1680103782165701826,-0.115
1680103782173397866,-0.1
1680103782181093906,-0.11900000000000001
1680103782188789946,-0.105
1680103782196485986,-0.069
1680103782204182026,-0.067
1680103782211878066,-0.07100000000000001
1680103782219574106,-0.05
1680103782227270146,-0.039
1680103782234966214,-0.05,78
1680103782242662254,-0.05
1680103782250358294,-0.023
1680103782258054334,0.006
1680103782265750374,0.0
1680103782273446414,-0.025
1680103782281142454,-0.021
1680103782288838494,-0.008
1680103782296534534,-0.016
1680103782304230574,-0.018000000000000002
1680103782311926614,0.004
1680103782319622654,0.0
1680103782327318694,-0.044
1680103782335014734,-0.065
1680103782342710774,-0.037
1680103782350406814,-0.012
1680103782358102854,-0.012
1680103782365798894,0.004
1680103782373494934,0.052000000000000005
1680103782381190974,0.1
1680103782388887014,0.134
1680103782396583054,0.18
1680103782404279094,0.22
1680103782411975134,0.227
1680103782419671174,0.222
1680103782427367214,0.23700000000000002
1680103782435063254,0.256
1680103782442759294,0.267
1680103782450455334,0.262
1680103782458151374,0.256
1680103782465847414,0.265
1680103782473543454,0.271
1680103782481239494,0.269
1680103782488935534,0.29
1680103782496631574,0.313,,747
1680103782504327614,0.3
1680103782512023654,0.28800000000000003
1680103782519719694,0.309
1680103782527415734,0.334
1680103782535111774,0.336
1680103782542807814,0.313
1680103782550503854,0.279
1680103782558199894,0.269
1680103782565895934,0.277
1680103782573591974,0.29
1680103782581288014,0.302
1680103782588984054,0.315
1680103782596680094,0.309
1680103782604376134,0.269
1680103782612072174,0.218
1680103782619768214,0.212
1680103782627464254,0.218
1680103782635160294,0.20600000000000002
1680103782642856334,0.21
1680103782650552374,0.225
1680103782658248414,0.222
1680103782665944454,0.23700000000000002
1680103782673640494,0.252
1680103782681336534,0.225
1680103782689032574,0.187
1680103782696728614,0.17400000000000002
1680103782704424654,0.17200000000000001
1680103782712120694,0.178
1680103782719816734,0.20800000000000002
1680103782727512774,0.222
1680103782735208814,0.201
1680103782742904854,0.168
1680103782750600894,0.136
1680103782758296934,0.113
1680103782765992974,0.084
1680103782773689014,0.039
1680103782781385054,0.008
1680103782789081094,-0.056
1680103782796777162,-0.323
1680103782804473202,-0.858
1680103782812169242,-1.316
1680103782819865282,-1.081
1680103782827561322,-0.153
1680103782835257362,0.395
1680103782842953402,0.065
1680103782850649442,-0.227
1680103782858345482,-0.10300000000000001
1680103782866041522,-0.082
1680103782873737562,-0.168
1680103782881433602,-0.128
1680103782889129642,-0.082
1680103782896825682,-0.10300000000000001
1680103782904521722,-0.092
1680103782912217762,-0.067
1680103782919913802,-0.084
1680103782927609842,-0.094
1680103782935305882,-0.061
1680103782943001922,-0.027
1680103782950697962,-0.023
1680103782958394002,-0.031
1680103782966090042,-0.029
1680103782973786082,-0.012
1680103782981482122,-0.012
1680103782989178162,-0.027
1680103782996874202,-0.004
1680103783004570242,0.027
1680103783012266282,0.016
1680103783019962322,0.006
1680103783027658362,0.01
1680103783035354402,-0.014
1680103783043050442,-0.042
1680103783050746482,-0.029
1680103783058442522,-0.012
1680103783066138562,-0.004
1680103783073834602,0.01
1680103783081530642,0.021
1680103783089226682,0.031
1680103783096922722,0.042
1680103783104618762,0.025
1680103783112314802,-0.002
1680103783120010842,0.018000000000000002
1680103783127706882,0.067
1680103783135402922,0.092
1680103783143098962,0.1
1680103783150795002,0.111
1680103783158491042,0.126
1680103783166187082,0.134
1680103783173883122,0.14300000000000002
1680103783181579162,0.159
1680103783189275202,0.176
1680103783196971242,0.17400000000000002
1680103783204667282,0.17200000000000001
1680103783212363322,0.189
1680103783220059362,0.201
1680103783227755402,0.20400000000000001
1680103783235451442,0.21
1680103783243147482,0.218
1680103783250843522,0.218,,753
1680103783258539562,0.22
1680103783266235602,0.229
1680103783273931642,0.23900000000000002
1680103783281627682,0.214
1680103783289323722,0.168
1680103783297019762,0.168
1680103783304715802,0.197
1680103783312411842,0.201
1680103783320107882,0.197
1680103783327803922,0.212
1680103783335499962,0.222
1680103783343196002,0.214
1680103783350892042,0.22
1680103783358588110,0.25,78
1680103783366284150,0.262
1680103783373980190,0.254
1680103783381676230,0.248
1680103783389372270,0.25
1680103783397068310,0.26
1680103783404764350,0.248
1680103783412460390,0.197
1680103783420156430,0.164
1680103783427852470,0.153
1680103783435548510,0.128
1680103783443244550,0.115
1680103783450940590,0.14300000000000002
1680103783458636630,0.159
1680103783466332670,0.13
1680103783474028710,0.107
1680103783481724750,0.11900000000000001
1680103783489420790,0.117
1680103783497116830,0.082
1680103783504812870,0.052000000000000005
1680103783512508910,0.035
1680103783520204950,-0.006
1680103783527900990,-0.07100000000000001
1680103783535597030,-0.195
1680103783543293070,-0.561
1680103783550989110,-1.11
1680103783558685150,-1.2790000000000001
1680103783566381190,-0.591
1680103783574077230,0.33
1680103783581773270,0.41600000000000004
1680103783589469310,0.002
1680103783597165350,-0.069
1680103783604861390,0.014
1680103783612557430,-0.056
1680103783620253470,-0.134
1680103783627949510,-0.13
1680103783635645550,-0.111
1680103783643341590,-0.107
1680103783651037630,-0.111
1680103783658733670,-0.11900000000000001
1680103783666429710,-0.117
1680103783674125750,-0.113
1680103783681821790,-0.107
1680103783689517830,-0.082
1680103783697213870,-0.067
1680103783704909910,-0.084
1680103783712605950,-0.088
1680103783720301990,-0.063
1680103783727998030,-0.044
1680103783735694070,-0.048
1680103783743390110,-0.048
1680103783751086150,-0.039
1680103783758782190,-0.035
1680103783766478230,-0.035
1680103783774174270,-0.048
1680103783781870310,-0.065
1680103783789566350,-0.058
1680103783797262390,-0.054
1680103783804958430,-0.054
1680103783812654470,-0.031
1680103783820350510,-0.008
1680103783828046550,-0.006
1680103783835742590,0.01
1680103783843438630,0.048
1680103783851134670,0.079
1680103783858830710,0.111
1680103783866526750,0.157
1680103783874222790,0.201
1680103783881918830,0.225
1680103783889614870,0.225
1680103783897310910,0.23500000000000001
1680103783905006950,0.265
1680103783912702990,0.273
1680103783920399060,0.262
1680103783928095100,0.267
1680103783935791140,0.273
1680103783943487180,0.269
1680103783951183220,0.267
1680103783958879260,0.279
1680103783966575300,0.305
1680103783974271340,0.311,,727
1680103783981967380,0.296
1680103783989663420,0.296
1680103783997359460,0.294
1680103784005055500,0.25
1680103784012751540,0.18
1680103784020447580,0.136
1680103784028143620,0.122
1680103784035839660,0.117
1680103784043535700,0.128
1680103784051231740,0.149
1680103784058927780,0.151
1680103784066623820,0.128
1680103784074319860,0.113
1680103784082015900,0.14
1680103784089711940,0.18
1680103784097407980,0.187
1680103784105104020,0.183
1680103784112800060,0.185
1680103784120496100,0.14300000000000002
1680103784128192140,0.065
1680103784135888180,0.046
1680103784143584220,0.07100000000000001
1680103784151280260,0.063
1680103784158976300,0.037
1680103784166672340,0.031
1680103784174368380,0.031
1680103784182064420,0.029
1680103784189760460,0.033
1680103784197456500,0.054
1680103784205152540,0.061
1680103784212848580,0.044
1680103784220544620,0.014
1680103784228240660,0.006
1680103784235936700,0.012
1680103784243632740,-0.018000000000000002
1680103784251328780,-0.058
1680103784259024820,-0.063
1680103784266720860,-0.17400000000000002
1680103784274416900,-0.582
1680103784282112940,-1.135
1680103784289808980,-1.356
1680103784297505020,-0.786
1680103784305201060,0.161
1680103784312897100,0.376
1680103784320593140,-0.054
1680103784328289180,-0.176
1680103784335985220,-0.033
1680103784343681260,-0.039
1680103784351377300,-0.082
1680103784359073340,-0.054
1680103784366769380,-0.033
1680103784374465420,-0.021
1680103784382161460,0.004
1680103784389857500,0.014
1680103784397553540,-0.008
1680103784405249580,-0.018000000000000002
1680103784412945620,0.004
1680103784420641660,0.006
1680103784428337700,-0.006
1680103784436033740,0.008
1680103784443729780,0.023
1680103784451425820,0.006
1680103784459121860,0.0
1680103784466817900,0.016
1680103784474513940,0.031
1680103784482210008,0.037,79
1680103784489906048,0.033
1680103784497602088,0.035
1680103784505298128,0.046
1680103784512994168,0.021
1680103784520690208,-0.018000000000000002
1680103784528386248,-0.018000000000000002
1680103784536082288,-0.01
1680103784543778328,-0.048
1680103784551474368,-0.092
1680103784559170408,-0.082
1680103784566866448,-0.046
1680103784574562488,-0.027
1680103784582258528,-0.012
1680103784589954568,0.021
1680103784597650608,0.069
1680103784605346648,0.096
1680103784613042688,0.111
1680103784620738728,0.138
1680103784628434768,0.113
1680103784636130808,0.027
1680103784643826848,0.0
1680103784651522888,0.039
1680103784659218928,0.052000000000000005
1680103784666914968,0.035
1680103784674611008,0.033
1680103784682307048,0.046
1680103784690003088,0.063
1680103784697699128,0.073,,722
1680103784705395168,0.084
1680103784713091208,0.1
1680103784720787248,0.105
1680103784728483288,0.096
1680103784736179328,0.10300000000000001
1680103784743875368,0.134
1680103784751571408,0.159
1680103784759267448,0.14
1680103784766963488,0.109
1680103784774659528,0.122
1680103784782355568,0.13
1680103784790051608,0.11900000000000001
1680103784797747648,0.136
1680103784805443688,0.164
1680103784813139728,0.157
1680103784820835768,0.147
1680103784828531808,0.168
1680103784836227848,0.193
1680103784843923888,0.199
1680103784851619928,0.199
1680103784859315968,0.212
1680103784867012008,0.227
1680103784874708048,0.23500000000000001
1680103784882404088,0.246
1680103784890100128,0.26
1680103784897796168,0.252
1680103784905492208,0.199
1680103784913188248,0.14300000000000002
1680103784920884288,0.14300000000000002
1680103784928580328,0.185
1680103784936276368,0.20600000000000002
1680103784943972408,0.17
1680103784951668448,0.132
1680103784959364488,0.11900000000000001
1680103784967060528,0.084
1680103784974756568,0.048
1680103784982452608,0.048
1680103784990148648,0.05
1680103784997844688,0.037
1680103785005540728,-0.006
1680103785013236768,-0.21
1680103785020932808,-0.687
1680103785028628848,-1.203
1680103785036324888,-1.1460000000000001
1680103785044020956,-0.28600000000000003
1680103785051716996,0.47700000000000004
1680103785059413036,0.317
1680103785067109076,-0.05
1680103785074805116,0.039
1680103785082501156,0.132
1680103785090197196,0.031
1680103785097893236,0.025
1680103785105589276,0.082
1680103785113285316,0.035
1680103785120981356,-0.031
1680103785128677396,-0.031
1680103785136373436,-0.058
1680103785144069476,-0.149
1680103785151765516,-0.195
1680103785159461556,-0.164
1680103785167157596,-0.147
1680103785174853636,-0.166
1680103785182549676,-0.178
1680103785190245716,-0.164
1680103785197941756,-0.147
1680103785205637796,-0.14
1680103785213333836,-0.132
1680103785221029876,-0.113
1680103785228725916,-0.113
1680103785236421956,-0.124
1680103785244117996,-0.128
1680103785251814036,-0.14300000000000002
1680103785259510076,-0.155
1680103785267206116,-0.151
1680103785274902156,-0.14300000000000002
1680103785282598196,-0.122
1680103785290294236,-0.082
1680103785297990276,-0.065
1680103785305686316,-0.058
1680103785313382356,-0.016
1680103785321078396,0.023
1680103785328774436,0.039
1680103785336470476,0.073
1680103785344166516,0.13
1680103785351862556,0.17
1680103785359558596,0.17400000000000002
1680103785367254636,0.18
1680103785374950676,0.20400000000000001
1680103785382646716,0.22
1680103785390342756,0.227
1680103785398038796,0.23900000000000002
1680103785405734836,0.252
1680103785413430876,0.244
1680103785421126916,0.233
1680103785428822956,0.241,,731
1680103785436518996,0.26
1680103785444215036,0.269
1680103785451911076,0.269
1680103785459607116,0.275
1680103785467303156,0.28300000000000003
1680103785474999196,0.281
1680103785482695236,0.28600000000000003
1680103785490391276,0.29
1680103785498087316,0.258
1680103785505783356,0.20600000000000002
1680103785513479396,0.201
1680103785521175436,0.222
1680103785528871476,0.227
1680103785536567516,0.233
1680103785544263556,0.254
1680103785551959596,0.26
1680103785559655636,0.254
1680103785567351676,0.254
1680103785575047716,0.262
1680103785582743756,0.281
1680103785590439796,0.292
1680103785598135836,0.273
1680103785605831904,0.267,79
1680103785613527944,0.294
1680103785621223984,0.313
1680103785628920024,0.311
1680103785636616064,0.294
1680103785644312104,0.23700000000000002
1680103785652008144,0.109
1680103785659704184,-0.035
1680103785667400224,-0.1
1680103785675096264,-0.107
1680103785682792304,-0.113
1680103785690488344,-0.13
1680103785698184384,-0.164
1680103785705880424,-0.176
1680103785713576464,-0.159
1680103785721272504,-0.17
1680103785728968544,-0.20400000000000001
1680103785736664584,-0.23500000000000001
1680103785744360624,-0.269
1680103785752056664,-0.269
1680103785759752704,-0.271
1680103785767448744,-0.502
1680103785775144784,-1.041
1680103785782840824,-1.485
1680103785790536864,-1.186
1680103785798232904,-0.199
1680103785805928944,0.359
1680103785813624984,0.056
1680103785821321024,-0.197
1680103785829017064,-0.079
1680103785836713104,-0.056
1680103785844409144,-0.13
1680103785852105184,-0.088
1680103785859801224,-0.037
1680103785867497264,-0.046
1680103785875193304,-0.052000000000000005
1680103785882889344,-0.046
1680103785890585384,-0.035
1680103785898281424,-0.023
1680103785905977464,-0.012
1680103785913673504,0.002
1680103785921369544,0.002
1680103785929065584,-0.002
1680103785936761624,0.014
1680103785944457664,0.042
1680103785952153704,0.056
1680103785959849744,0.042
1680103785967545784,0.033
1680103785975241824,0.075
1680103785982937864,0.094
1680103785990633904,0.012
1680103785998329944,-0.048
1680103786006025984,0.0
1680103786013722024,0.027
1680103786021418064,0.008
1680103786029114104,0.033
1680103786036810144,0.079
1680103786044506184,0.092
1680103786052202224,0.105
1680103786059898264,0.138
1680103786067594304,0.159
1680103786075290344,0.147
1680103786082986384,0.151
1680103786090682424,0.21
1680103786098378464,0.265
1680103786106074504,0.265
1680103786113770544,0.265
1680103786121466584,0.298
1680103786129162624,0.328
1680103786136858664,0.326
1680103786144554704,0.315
1680103786152250744,0.29
1680103786159946784,0.222
1680103786167642852,0.153,,740
1680103786175339310,0.151
1680103786183035768,0.176
1680103786190732226,0.164
1680103786198428684,0.136
1680103786206125142,0.145
1680103786213821600,0.161
1680103786221518058,0.17200000000000001
1680103786229214516,0.187
1680103786236910974,0.17
1680103786244607432,0.13
1680103786252303890,0.094
1680103786260000348,0.061
1680103786267696806,0.046
1680103786275393264,0.063
1680103786283089722,0.067
1680103786290786180,0.05
1680103786298482638,0.056
1680103786306179096,0.08600000000000001
1680103786313875554,0.094
1680103786321572012,0.096
1680103786329268470,0.113
1680103786336964928,0.124
1680103786344661386,0.128
1680103786352357844,0.136
1680103786360054302,0.145
1680103786367750760,0.161
1680103786375447218,0.153
1680103786383143676,0.115
1680103786390840134,0.10300000000000001
1680103786398536592,0.107
1680103786406233050,0.079
1680103786413929508,0.035
1680103786421625966,-0.002
1680103786429322424,-0.027
1680103786437018882,-0.035
1680103786444715340,-0.042
1680103786452411798,-0.035
1680103786460108256,-0.023
1680103786467804714,-0.037
1680103786475501172,-0.075
1680103786483197630,-0.111
1680103786490894088,-0.136
1680103786498590546,-0.14
1680103786506287004,-0.113
1680103786513983462,-0.147
1680103786521679920,-0.448
1680103786529376378,-0.984
1680103786537072836,-1.323
1680103786544769294,-0.91
1680103786552465752,0.052000000000000005
1680103786560162210,0.456
1680103786567858668,0.08600000000000001
1680103786575555126,-0.113
1680103786583251584,0.021
1680103786590948042,0.035
1680103786598644500,0.006
1680103786606340958,0.067
1680103786614037416,0.069
1680103786621733874,0.008
1680103786629430332,0.021
1680103786637126790,0.063
1680103786644823248,0.056
1680103786652519706,0.027
1680103786660216164,-0.012
1680103786667912622,-0.054
1680103786675609080,-0.065
1680103786683305538,-0.063
1680103786691001996,-0.07100000000000001
1680103786698698454,-0.07100000000000001
1680103786706394912,-0.069
1680103786714091370,-0.067
1680103786721787828,-0.067
1680103786729484318,-0.098,79
1680103786737180358,-0.128
1680103786744876398,-0.111
1680103786752572438,-0.1
1680103786760268478,-0.138
1680103786767964518,-0.189
1680103786775660558,-0.191
1680103786783356598,-0.145
1680103786791052638,-0.136
1680103786798748678,-0.153
1680103786806444718,-0.134
1680103786814140758,-0.1
1680103786821836798,-0.075
1680103786829532838,-0.044
1680103786837228878,-0.002
1680103786844924918,0.029
1680103786852620958,0.035
1680103786860316998,0.05
1680103786868013038,0.092
1680103786875709078,0.134
1680103786883405118,0.14300000000000002
1680103786891101158,0.124
1680103786898797198,0.13
1680103786906493238,0.157
1680103786914189278,0.17400000000000002,,743
1680103786921885318,0.176
1680103786929581358,0.185
1680103786937277398,0.193
1680103786944973438,0.195
1680103786952669478,0.193
1680103786960365518,0.20400000000000001
1680103786968061558,0.212
1680103786975757598,0.191
1680103786983453638,0.159
1680103786991149678,0.164
1680103786998845718,0.193
1680103787006541758,0.20400000000000001
1680103787014237798,0.20800000000000002
1680103787021933838,0.231
1680103787029629878,0.244
1680103787037325918,0.225
1680103787045021958,0.22
1680103787052717998,0.26
1680103787060414038,0.292
1680103787068110078,0.28600000000000003
1680103787075806118,0.279
1680103787083502158,0.28600000000000003
1680103787091198198,0.28600000000000003
1680103787098894238,0.28600000000000003
1680103787106590278,0.311
1680103787114286318,0.338
1680103787121982358,0.315
1680103787129678398,0.252
1680103787137374438,0.218
1680103787145070478,0.222
1680103787152766518,0.214
1680103787160462558,0.157
1680103787168158598,0.073
1680103787175854638,0.018000000000000002
1680103787183550678,-0.016
1680103787191246718,-0.046
1680103787198942758,-0.048
1680103787206638798,-0.046
1680103787214334838,-0.077
1680103787222030878,-0.11900000000000001
1680103787229726918,-0.132
1680103787237422958,-0.109
1680103787245118998,-0.115
1680103787252815038,-0.28600000000000003
1680103787260511078,-0.723
1680103787268207118,-1.22
1680103787275903158,-1.167
1680103787283599198,-0.3
1680103787291295268,0.485,80
1680103787298990890,0.363
1680103787306686512,-0.021
1680103787314382134,-0.018000000000000002
1680103787322077756,0.054
1680103787329773378,0.018000000000000002
1680103787337469000,0.021
1680103787345164622,0.042
1680103787352860244,0.027
1680103787360555866,0.012
1680103787368251488,-0.018000000000000002
1680103787375947110,-0.052000000000000005
1680103787383642732,-0.042
1680103787391338354,-0.033
1680103787399033976,-0.056
1680103787406729598,-0.061
1680103787414425220,-0.033
1680103787422120842,-0.025
1680103787429816464,-0.037
1680103787437512086,-0.035
1680103787445207708,-0.021
1680103787452903330,-0.023
1680103787460598952,-0.039
1680103787468294574,-0.063
1680103787475990196,-0.077
1680103787483685818,-0.08600000000000001
1680103787491381440,-0.098
1680103787499077062,-0.094
1680103787506772684,-0.07100000000000001
1680103787514468306,-0.054
1680103787522163928,-0.033
1680103787529859550,-0.004
1680103787537555172,0.006
1680103787545250794,0.004
1680103787552946416,0.035
1680103787560642038,0.09
1680103787568337660,0.14
1680103787576033282,0.17200000000000001
1680103787583728904,0.189
1680103787591424526,0.21
1680103787599120148,0.241
1680103787606815770,0.256
1680103787614511392,0.26
1680103787622207014,0.28300000000000003
1680103787629902636,0.292
1680103787637598258,0.271
1680103787645293880,0.269,,731
1680103787652989502,0.294
1680103787660685124,0.28300000000000003
1680103787668380746,0.212
1680103787676076368,0.157
1680103787683771990,0.17
1680103787691467612,0.185
1680103787699163234,0.17200000000000001
1680103787706858856,0.159
1680103787714554478,0.136
1680103787722250100,0.113
1680103787729945722,0.117
1680103787737641344,0.132
1680103787745336966,0.153
1680103787753032588,0.199
1680103787760728210,0.227
1680103787768423832,0.21
1680103787776119454,0.185
1680103787783815076,0.153
1680103787791510698,0.13
1680103787799206320,0.149
1680103787806901942,0.17400000000000002
1680103787814597564,0.17
1680103787822293186,0.17
1680103787829988808,0.197
1680103787837684430,0.222
1680103787845380052,0.216
1680103787853075698,0.18
1680103787860772156,0.136
1680103787868468614,0.115
1680103787876165072,0.1
1680103787883861530,0.077
1680103787891557988,0.075
1680103787899254446,0.058
1680103787906950904,-0.031
1680103787914647362,-0.11900000000000001
1680103787922343820,-0.11900000000000001
1680103787930040278,-0.1
1680103787937736736,-0.128
1680103787945433194,-0.153
1680103787953129652,-0.168
1680103787960826110,-0.199
1680103787968522568,-0.244
1680103787976219026,-0.42
1680103787983915484,-0.879
1680103787991611942,-1.3820000000000001
1680103787999308400,-1.293
1680103788007004858,-0.38
1680103788014701316,0.382
1680103788022397774,0.197
1680103788030094232,-0.17
1680103788037790690,-0.088
1680103788045487148,-0.008
1680103788053183606,-0.082
1680103788060880064,-0.069
1680103788068576522,-0.014
1680103788076272980,-0.01
1680103788083969438,-0.012
1680103788091665896,-0.01
1680103788099362354,-0.004
1680103788107058812,0.012
1680103788114755270,0.021
1680103788122451728,0.027
1680103788130148186,0.044
1680103788137844644,0.05
1680103788145541102,0.037
1680103788153237560,0.042
1680103788160934018,0.039
1680103788168630476,-0.018000000000000002
1680103788176326934,-0.084
1680103788184023392,-0.105
1680103788191719850,-0.1
1680103788199416308,-0.107
1680103788207112766,-0.117
1680103788214809224,-0.115
1680103788222505682,-0.105
1680103788230202140,-0.094
1680103788237898598,-0.08600000000000001
1680103788245595056,-0.073
1680103788253291514,-0.037
1680103788260987972,-0.008
1680103788268684430,0.002
1680103788276380888,0.018000000000000002
1680103788284077346,0.058
1680103788291773804,0.109
1680103788299470262,0.147
1680103788307166720,0.18
1680103788314863178,0.214
1680103788322559636,0.22
1680103788330256094,0.214
1680103788337952552,0.23500000000000001
1680103788345649010,0.267
1680103788353345468,0.275
1680103788361041926,0.271
1680103788368738384,0.271
1680103788376434842,0.275
1680103788384131300,0.281,,743
1680103788391827758,0.28600000000000003
1680103788399524216,0.298
1680103788407220674,0.309
1680103788414917164,0.3,80
1680103788422613204,0.28600000000000003
1680103788430309244,0.292
1680103788438005284,0.321
1680103788445701324,0.334
1680103788453397364,0.302
1680103788461093404,0.271
1680103788468789444,0.265
1680103788476485484,0.23500000000000001
1680103788484181524,0.185
1680103788491877564,0.18
1680103788499573604,0.191
1680103788507269644,0.17400000000000002
1680103788514965684,0.17400000000000002
1680103788522661724,0.197
1680103788530357764,0.21
1680103788538053804,0.212
1680103788545749844,0.22
1680103788553445884,0.23500000000000001
1680103788561141924,0.23900000000000002
1680103788568837964,0.23700000000000002
1680103788576534004,0.229
1680103788584230044,0.225
1680103788591926084,0.201
1680103788599622124,0.153
1680103788607318164,0.155
1680103788615014204,0.20400000000000001
1680103788622710244,0.214
1680103788630406284,0.183
1680103788638102324,0.155
1680103788645798364,0.132
1680103788653494404,0.09
1680103788661190444,0.048
1680103788668886484,0.018000000000000002
1680103788676582524,-0.031
1680103788684278564,-0.096
1680103788691974604,-0.225
1680103788699670644,-0.622
1680103788707366684,-1.222
1680103788715062724,-1.476
1680103788722758764,-0.881
1680103788730454804,0.094
1680103788738150844,0.309
1680103788745846884,-0.117
1680103788753542924,-0.222
1680103788761238964,-0.067
1680103788768935004,-0.079
1680103788776631044,-0.132
1680103788784327084,-0.109
1680103788792023124,-0.094
1680103788799719164,-0.088
1680103788807415204,-0.082
1680103788815111244,-0.077
1680103788822807284,-0.063
1680103788830503324,-0.056
1680103788838199364,-0.067
1680103788845895404,-0.065
1680103788853591444,-0.039
1680103788861287484,-0.021
1680103788868983524,-0.025
1680103788876679564,-0.031
1680103788884375604,-0.018000000000000002
1680103788892071644,-0.002
1680103788899767684,0.002
1680103788907463724,0.01
1680103788915159764,0.023
1680103788922855804,0.014
1680103788930551844,0.008
1680103788938247884,0.014
1680103788945943924,0.002
1680103788953639964,-0.021
1680103788961336004,-0.016
1680103788969032044,-0.006
1680103788976728112,0.006
1680103788984424152,0.021
1680103788992120192,0.042
1680103788999816232,0.082
1680103789007512272,0.117
1680103789015208312,0.096
1680103789022904352,0.063
1680103789030600392,0.09
1680103789038296432,0.132
1680103789045992472,0.136
1680103789053688512,0.132
1680103789061384552,0.14300000000000002
1680103789069080592,0.153
1680103789076776632,0.151
1680103789084472672,0.161
1680103789092168712,0.185
1680103789099864752,0.191
1680103789107560792,0.17200000000000001
1680103789115256832,0.17200000000000001
1680103789122952872,0.199
1680103789130648912,0.214
1680103789138344952,0.212,,752
1680103789146040992,0.22
1680103789153737032,0.233
1680103789161433072,0.233
1680103789169129112,0.23700000000000002
1680103789176825152,0.22
1680103789184521192,0.149
1680103789192217232,0.065
1680103789199913272,0.023
1680103789207609312,0.025
1680103789215305352,0.048
1680103789223001392,0.056
1680103789230697432,0.054
1680103789238393472,0.067
1680103789246089512,0.082
1680103789253785552,0.082
1680103789261481592,0.092
1680103789269177632,0.122
1680103789276873672,0.147
1680103789284569712,0.153
1680103789292265752,0.147
1680103789299961792,0.138
1680103789307657832,0.145
1680103789315353872,0.14300000000000002
1680103789323049912,0.132
1680103789330745952,0.157
1680103789338441992,0.20400000000000001
1680103789346138032,0.195
1680103789353834072,0.159
1680103789361530112,0.164
1680103789369226152,0.183
1680103789376922192,0.168
1680103789384618232,0.134
1680103789392314272,0.10300000000000001
1680103789400010312,0.084
1680103789407706352,0.07100000000000001
1680103789415402392,-0.016
1680103789423098432,-0.34900000000000003
1680103789430794472,-0.9380000000000001
1680103789438490512,-1.31
1680103789446186552,-0.8280000000000001
1680103789453882592,0.178
1680103789461578632,0.492
1680103789469274672,0.069
1680103789476970712,-0.098
1680103789484666752,0.037
1680103789492362792,0.033
1680103789500058832,-0.018000000000000002
1680103789507754872,0.018000000000000002
1680103789515450912,0.037
1680103789523146952,0.012
1680103789530842992,0.008
1680103789538539060,0.027,80
1680103789546235100,0.044
1680103789553931140,0.046
1680103789561627180,0.042
1680103789569323220,0.035
1680103789577019260,0.031
1680103789584715300,0.002
1680103789592411340,-0.042
1680103789600107380,-0.052000000000000005
1680103789607803420,-0.039
1680103789615499460,-0.052000000000000005
1680103789623195500,-0.065
1680103789630891540,-0.048
1680103789638587580,-0.027
1680103789646283620,-0.027
1680103789653979660,-0.029
1680103789661675700,-0.018000000000000002
1680103789669371740,-0.002
1680103789677067780,-0.004
1680103789684763820,-0.035
1680103789692459860,-0.073
1680103789700155900,-0.084
1680103789707851940,-0.08600000000000001
1680103789715547980,-0.077
1680103789723244020,-0.029
1680103789730940060,0.016
1680103789738636100,0.048
1680103789746332140,0.084
1680103789754028180,0.117
1680103789761724220,0.134
1680103789769420260,0.147
1680103789777116300,0.17
1680103789784812340,0.193
1680103789792508380,0.195
1680103789800204420,0.18
1680103789807900460,0.176
1680103789815596500,0.197
1680103789823292540,0.20400000000000001
1680103789830988580,0.201
1680103789838684620,0.22
1680103789846380660,0.227
1680103789854076700,0.214
1680103789861772740,0.222
1680103789869468780,0.246
1680103789877164820,0.262
1680103789884860860,0.262
1680103789892556900,0.248,,753
1680103789900252940,0.25
1680103789907948980,0.281
1680103789915645020,0.302
1680103789923341060,0.294
1680103789931037100,0.265
1680103789938733140,0.233
1680103789946429180,0.22
1680103789954125220,0.227
1680103789961821260,0.244
1680103789969517300,0.254
1680103789977213340,0.252
1680103789984909380,0.241
1680103789992605420,0.246
1680103790000301460,0.273
1680103790007997500,0.298
1680103790015693540,0.302
1680103790023389580,0.302
1680103790031085620,0.28600000000000003
1680103790038781660,0.256
1680103790046477700,0.246
1680103790054173740,0.262
1680103790061869780,0.296
1680103790069565820,0.33
1680103790077261860,0.332
1680103790084957900,0.33
1680103790092653940,0.336
1680103790100350008,0.309
1680103790108046466,0.273
1680103790115742924,0.269
1680103790123439382,0.231
1680103790131135840,0.157
1680103790138832298,0.122
1680103790146528756,0.004
1680103790154225214,-0.429
1680103790161921672,-1.049
1680103790169618130,-1.262
1680103790177314588,-0.605
1680103790185011046,0.279
1680103790192707504,0.302
1680103790200403962,-0.159
1680103790208100420,-0.23500000000000001
1680103790215796878,-0.164
1680103790223493336,-0.229
1680103790231189794,-0.229
1680103790238886252,-0.17200000000000001
1680103790246582710,-0.189
1680103790254279168,-0.21
1680103790261975626,-0.189
1680103790269672084,-0.18
1680103790277368542,-0.18
1680103790285065000,-0.168
1680103790292761458,-0.14
1680103790300457916,-0.128
1680103790308154374,-0.136
1680103790315850832,-0.136
1680103790323547290,-0.115
1680103790331243748,-0.094
1680103790338940206,-0.08600000000000001
1680103790346636664,-0.079
1680103790354333122,-0.058
1680103790362029580,-0.037
1680103790369726038,-0.035
1680103790377422496,-0.031
1680103790385118954,-0.004
1680103790392815412,0.002
1680103790400511870,-0.021
1680103790408208328,-0.004
1680103790415904786,0.031
1680103790423601244,-0.004
1680103790431297702,-0.042
1680103790438994160,-0.012
1680103790446690618,0.016
1680103790454387076,0.016
1680103790462083534,0.035
1680103790469779992,0.079
1680103790477476450,0.132
1680103790485172908,0.17400000000000002
1680103790492869366,0.195
1680103790500565824,0.216
1680103790508262282,0.23500000000000001
1680103790515958740,0.244
1680103790523655198,0.254
1680103790531351656,0.267
1680103790539048114,0.265
1680103790546744572,0.256
1680103790554441030,0.258
1680103790562137488,0.275
1680103790569833946,0.292
1680103790577530404,0.29
1680103790585226862,0.275
1680103790592923320,0.267
1680103790600619778,0.277
1680103790608316236,0.28600000000000003
1680103790616012694,0.29
1680103790623709152,0.302,,734
1680103790631405610,0.309
1680103790639102068,0.298
1680103790646798526,0.311
1680103790654494984,0.35100000000000003
1680103790662191476,0.355,80
1680103790669887516,0.307
1680103790677583556,0.269
1680103790685279596,0.28600000000000003
1680103790692975636,0.294
1680103790700671676,0.244
1680103790708367716,0.18
1680103790716063756,0.168
1680103790723759796,0.14300000000000002
1680103790731455836,0.079
1680103790739151876,0.067
1680103790746847916,0.08600000000000001
1680103790754543956,0.065
1680103790762239996,0.033
1680103790769936036,0.029
1680103790777632076,0.046
1680103790785328116,0.073
1680103790793024156,0.09
1680103790800720196,0.096
1680103790808416236,0.105
1680103790816112276,0.111
1680103790823808316,0.11900000000000001
1680103790831504356,0.128
1680103790839200396,0.107
1680103790846896436,0.08600000000000001
1680103790854592476,0.098
1680103790862288516,0.08600000000000001
1680103790869984556,-0.124
1680103790877680596,-0.628
1680103790885376636,-1.1440000000000001
1680103790893072676,-1.072
1680103790900768716,-0.229
1680103790908464756,0.47100000000000003
1680103790916160796,0.25
1680103790923856836,-0.151
1680103790931552876,-0.105
1680103790939248916,-0.039
1680103790946944956,-0.115
1680103790954640996,-0.11900000000000001
1680103790962337036,-0.096
1680103790970033076,-0.111
1680103790977729116,-0.10300000000000001
1680103790985425156,-0.077
1680103790993121196,-0.084
1680103791000817236,-0.1
1680103791008513276,-0.088
1680103791016209316,-0.063
1680103791023905356,-0.058
1680103791031601396,-0.056
1680103791039297436,-0.048
1680103791046993476,-0.044
1680103791054689516,-0.052000000000000005
1680103791062385556,-0.054
1680103791070081596,-0.035
1680103791077777636,-0.018000000000000002
1680103791085473676,-0.021
1680103791093169716,-0.029
1680103791100865756,-0.031
1680103791108561796,-0.018000000000000002
1680103791116257836,-0.008
1680103791123953876,0.0
1680103791131649916,0.025
1680103791139345956,0.044
1680103791147041996,0.039
1680103791154738036,0.029
1680103791162434076,0.023
1680103791170130116,0.029
1680103791177826156,0.056
1680103791185522196,0.077
1680103791193218236,0.098
1680103791200914276,0.113
1680103791208610316,0.08600000000000001
1680103791216306356,0.065
1680103791224002424,0.098,80
1680103791231698882,0.098
1680103791239395340,0.061
1680103791247091798,0.07100000000000001
1680103791254788256,0.107
1680103791262484714,0.111
1680103791270181172,0.105
1680103791277877630,0.107
1680103791285574088,0.1
1680103791293270546,0.075
1680103791300967004,0.035
1680103791308663462,0.031
1680103791316359920,0.061
1680103791324056378,0.046
1680103791331752836,0.014
1680103791339449294,0.046
1680103791347145752,0.098,,723
1680103791354842210,0.098
1680103791362538668,0.082
1680103791370235126,0.092
1680103791377931584,0.107
1680103791385628042,0.111
1680103791393324500,0.122
1680103791401020958,0.14
1680103791408717416,0.132
1680103791416413874,0.105
1680103791424110332,0.098
1680103791431806790,0.122
1680103791439503248,0.134
1680103791447199706,0.11900000000000001
1680103791454896164,0.111
1680103791462592622,0.126
1680103791470289080,0.145
1680103791477985538,0.151
1680103791485681996,0.153
1680103791493378454,0.17
1680103791501074912,0.183
1680103791508771370,0.17200000000000001
1680103791516467828,0.164
1680103791524164286,0.20400000000000001
1680103791531860744,0.258
1680103791539557202,0.271
1680103791547253660,0.265
1680103791554950118,0.252
1680103791562646576,0.216
1680103791570343034,0.187
1680103791578039492,0.189
1680103791585735950,0.20600000000000002
1680103791593432408,0.20800000000000002
1680103791601128866,0.161
1680103791608825324,-0.023
1680103791616521782,-0.498
1680103791624218240,-1.085
1680103791631914698,-1.1400000000000001
1680103791639611156,-0.336
1680103791647307614,0.47100000000000003
1680103791655004072,0.353
1680103791662700530,-0.056
1680103791670396988,-0.004
1680103791678093446,0.109
1680103791685789904,0.025
1680103791693486362,-0.004
1680103791701182820,0.027
1680103791708879278,-0.021
1680103791716575736,-0.109
1680103791724272194,-0.132
1680103791731968652,-0.109
1680103791739665110,-0.124
1680103791747361568,-0.155
1680103791755058026,-0.147
1680103791762754484,-0.11900000000000001
1680103791770450942,-0.111
1680103791778147400,-0.122
1680103791785843890,-0.136
1680103791793539930,-0.138
1680103791801235970,-0.14
1680103791808932010,-0.132
1680103791816628050,-0.115
1680103791824324090,-0.115
1680103791832020130,-0.151
1680103791839716170,-0.199
1680103791847412210,-0.21
1680103791855108250,-0.176
1680103791862804290,-0.149
1680103791870500330,-0.147
1680103791878196370,-0.147
1680103791885892410,-0.126
1680103791893588450,-0.111
1680103791901284490,-0.13
1680103791908980530,-0.132
1680103791916676570,-0.09
1680103791924372610,-0.061
1680103791932068650,-0.042
1680103791939764690,0.004
1680103791947460730,0.046
1680103791955156770,0.063
1680103791962852810,0.082
1680103791970548850,0.10300000000000001
1680103791978244890,0.113
1680103791985940930,0.11900000000000001
1680103791993636970,0.13
1680103792001333010,0.147
1680103792009029050,0.161
1680103792016725090,0.157
1680103792024421130,0.151
1680103792032117170,0.17200000000000001
1680103792039813210,0.195
1680103792047509250,0.195
1680103792055205290,0.197
1680103792062901330,0.20800000000000002
1680103792070597370,0.216,,719
1680103792078293410,0.218
1680103792085989450,0.229
1680103792093685490,0.252
1680103792101381530,0.269
1680103792109077570,0.258
1680103792116773610,0.254
1680103792124469650,0.279
1680103792132165690,0.311
1680103792139861730,0.313
1680103792147557770,0.292
1680103792155253810,0.262
1680103792162949850,0.252
1680103792170645890,0.252
1680103792178341930,0.256
1680103792186037970,0.275
1680103792193734010,0.28600000000000003
1680103792201430050,0.271
1680103792209126090,0.256
1680103792216822130,0.22
1680103792224518170,0.155
1680103792232214210,0.134
1680103792239910250,0.159
1680103792247606290,0.14300000000000002
1680103792255302330,0.096
1680103792262998370,0.084
1680103792270694410,0.084
1680103792278390450,0.063
1680103792286086490,0.056
1680103792293782530,0.069
1680103792301478570,0.077
1680103792309174610,0.075
1680103792316870650,0.052000000000000005
1680103792324566690,0.016
1680103792332262730,-0.002
1680103792339958770,-0.035
1680103792347654838,-0.073,81
1680103792355351296,-0.061
1680103792363047754,-0.056
1680103792370744212,-0.258
1680103792378440670,-0.78
1680103792386137128,-1.325
1680103792393833586,-1.22
1680103792401530044,-0.307
1680103792409226502,0.376
1680103792416922960,0.147
1680103792424619418,-0.17400000000000002
1680103792432315876,-0.10300000000000001
1680103792440012334,-0.096
1680103792447708792,-0.187
1680103792455405250,-0.151
1680103792463101708,-0.115
1680103792470798166,-0.153
1680103792478494624,-0.155
1680103792486191082,-0.124
1680103792493887540,-0.126
1680103792501583998,-0.126
1680103792509280456,-0.096
1680103792516976914,-0.077
1680103792524673372,-0.09
1680103792532369830,-0.094
1680103792540066288,-0.065
1680103792547762746,-0.044
1680103792555459204,-0.044
1680103792563155662,-0.044
1680103792570852120,-0.039
1680103792578548578,-0.035
1680103792586245036,-0.025
1680103792593941494,-0.018000000000000002
1680103792601637952,-0.004
1680103792609334410,0.014
1680103792617030868,0.008
1680103792624727326,0.018000000000000002
1680103792632423784,0.044
1680103792640120242,0.027
1680103792647816700,-0.004
1680103792655513158,0.002
1680103792663209616,0.014
1680103792670906074,0.027
1680103792678602532,0.054
1680103792686298990,0.1
1680103792693995448,0.151
1680103792701691906,0.178
1680103792709388364,0.176
1680103792717084822,0.151
1680103792724781280,0.111
1680103792732477738,0.084
1680103792740174196,0.08600000000000001
1680103792747870654,0.1
1680103792755567112,0.113
1680103792763263570,0.113
1680103792770960028,0.11900000000000001
1680103792778656486,0.136
1680103792786352944,0.138
1680103792794049402,0.111,,725
1680103792801745860,0.088
1680103792809442318,0.094
1680103792817138776,0.115
1680103792824835234,0.126
1680103792832531692,0.134
1680103792840228150,0.151
1680103792847924608,0.161
1680103792855621066,0.153
1680103792863317524,0.153
1680103792871013982,0.17400000000000002
1680103792878710440,0.193
1680103792886406898,0.17200000000000001
1680103792894103356,0.136
1680103792901799814,0.149
1680103792909496304,0.178
1680103792917192344,0.178
1680103792924888384,0.183
1680103792932584424,0.20800000000000002
1680103792940280464,0.193
1680103792947976504,0.132
1680103792955672544,0.10300000000000001
1680103792963368584,0.126
1680103792971064624,0.145
1680103792978760664,0.13
1680103792986456704,0.117
1680103792994152744,0.126
1680103793001848784,0.113
1680103793009544824,0.08600000000000001
1680103793017240864,0.094
1680103793024936904,0.107
1680103793032632944,0.065
1680103793040328984,-0.002
1680103793048025024,-0.031
1680103793055721064,-0.046
1680103793063417104,-0.073
1680103793071113144,-0.077
1680103793078809184,-0.073
1680103793086505224,-0.075
1680103793094201264,-0.063
1680103793101897304,-0.061
1680103793109593344,-0.067
1680103793117289384,-0.048
1680103793124985424,-0.037
1680103793132681464,-0.063
1680103793140377504,-0.073
1680103793148073544,-0.185
1680103793155769584,-0.624
1680103793163465624,-1.19
1680103793171161664,-1.222
1680103793178857704,-0.395
1680103793186553744,0.443
1680103793194249784,0.38
1680103793201945824,-0.002
1680103793209641864,0.002
1680103793217337904,0.054
1680103793225033944,-0.046
1680103793232729984,-0.052000000000000005
1680103793240426024,0.008
1680103793248122064,-0.008
1680103793255818104,-0.037
1680103793263514144,-0.018000000000000002
1680103793271210184,0.0
1680103793278906224,-0.006
1680103793286602264,-0.006
1680103793294298304,0.008
1680103793301994344,0.008
1680103793309690384,-0.006
1680103793317386424,0.002
1680103793325082464,0.025
1680103793332778504,0.029
1680103793340474544,0.023
1680103793348170584,0.025
1680103793355866624,0.037
1680103793363562664,0.035
1680103793371258704,0.016
1680103793378954744,-0.006
1680103793386650784,-0.014
1680103793394346824,-0.008
1680103793402042864,-0.006
1680103793409738904,0.002
1680103793417434944,0.027
1680103793425130984,0.054
1680103793432827024,0.065
1680103793440523064,0.067
1680103793448219104,0.069
1680103793455915144,0.088
1680103793463611184,0.122
1680103793471307252,0.166,81
1680103793479003710,0.216
1680103793486700168,0.241
1680103793494396626,0.241
1680103793502093084,0.254
1680103793509789542,0.269
1680103793517486000,0.231,,729
1680103793525182458,0.187
1680103793532878916,0.193
1680103793540575374,0.193
1680103793548271832,0.168
1680103793555968290,0.161
1680103793563664748,0.183
1680103793571361206,0.201
1680103793579057664,0.191
1680103793586754122,0.183
1680103793594450580,0.197
1680103793602147038,0.20400000000000001
1680103793609843496,0.199
1680103793617539954,0.20800000000000002
1680103793625236412,0.193
1680103793632932870,0.149
1680103793640629328,0.13
1680103793648325786,0.153
1680103793656022244,0.178
1680103793663718702,0.189
1680103793671415160,0.189
1680103793679111618,0.189
1680103793686808076,0.201
1680103793694504534,0.214
1680103793702200992,0.218
1680103793709897450,0.233
1680103793717593908,0.22
1680103793725290366,0.124
1680103793732986824,0.033
1680103793740683282,0.042
1680103793748379740,0.063
1680103793756076198,0.042
1680103793763772656,0.021
1680103793771469114,-0.004
1680103793779165572,-0.033
1680103793786862030,-0.065
1680103793794558488,-0.115
1680103793802254946,-0.145
1680103793809951404,-0.155
1680103793817647862,-0.195
1680103793825344320,-0.20400000000000001
1680103793833040778,-0.14
1680103793840737236,-0.10300000000000001
1680103793848433694,-0.124
1680103793856130152,-0.11900000000000001
1680103793863826610,-0.113
1680103793871523068,-0.159
1680103793879219526,-0.191
1680103793886915984,-0.166
1680103793894612442,-0.134
1680103793902308900,-0.13
1680103793910005358,-0.222
1680103793917701816,-0.561
1680103793925398274,-1.068
1680103793933094732,-1.281
1680103793940791190,-0.6960000000000001
1680103793948487648,0.271
1680103793956184106,0.485
1680103793963880564,0.065
1680103793971577022,-0.05
1680103793979273480,0.082
1680103793986969938,0.07100000000000001
1680103793994666396,0.033
1680103794002362854,0.058
1680103794010059312,0.069
1680103794017755770,0.075
1680103794025452228,0.088
1680103794033148720,0.094
1680103794040844760,0.109
1680103794048540800,0.115
1680103794056236840,0.10300000000000001
1680103794063932880,0.10300000000000001
1680103794071628920,0.122
1680103794079324960,0.138
1680103794087021000,0.128
1680103794094717040,0.10300000000000001
1680103794102413080,0.105
1680103794110109120,0.115
1680103794117805160,0.094
1680103794125501200,0.09
1680103794133197240,0.111
1680103794140893280,0.084
1680103794148589320,0.012
1680103794156285360,-0.021
1680103794163981400,0.006
1680103794171677440,0.035
1680103794179373480,0.027
1680103794187069520,0.014
1680103794194765560,0.031
1680103794202461600,0.052000000000000005
1680103794210157640,0.07100000000000001
1680103794217853680,0.096
1680103794225549720,0.09
1680103794233245760,0.031
1680103794240941800,0.006,,721
1680103794248637840,0.052000000000000005
1680103794256333880,0.107
1680103794264029920,0.134
1680103794271725960,0.126
1680103794279422000,0.122
1680103794287118040,0.14
1680103794294814080,0.14300000000000002
1680103794302510120,0.134
1680103794310206160,0.17
1680103794317902200,0.197
1680103794325598240,0.17200000000000001
1680103794333294280,0.153
1680103794340990320,0.17
1680103794348686360,0.20400000000000001
1680103794356382400,0.214
1680103794364078440,0.17
1680103794371774480,0.128
1680103794379470520,0.138
1680103794387166560,0.153
1680103794394862600,0.155
1680103794402558640,0.187
1680103794410254680,0.231
1680103794417950720,0.227
1680103794425646760,0.216
1680103794433342800,0.23900000000000002
1680103794441038840,0.256
1680103794448734880,0.225
1680103794456430920,0.187
1680103794464126960,0.176
1680103794471823000,0.168
1680103794479519040,0.14300000000000002
1680103794487215080,0.11900000000000001
1680103794494911120,0.111
1680103794502607160,0.096
1680103794510303200,0.052000000000000005
1680103794517999240,0.018000000000000002
1680103794525695280,0.018000000000000002
1680103794533391320,0.016
1680103794541087360,0.008
1680103794548783400,0.008
1680103794556479440,0.002
1680103794564175480,-0.016
1680103794571871520,-0.031
1680103794579567560,-0.037
1680103794587263600,-0.048
1680103794594959668,-0.061,81
1680103794602655708,-0.058
1680103794610351748,-0.056
1680103794618047788,-0.065
1680103794625743828,-0.063
1680103794633439868,-0.05
1680103794641135908,-0.042
1680103794648831948,-0.056
1680103794656527988,-0.109
1680103794664224028,-0.147
1680103794671920068,-0.109
1680103794679616108,-0.105
1680103794687312148,-0.363
1680103794695008188,-0.904
1680103794702704228,-1.323
1680103794710400268,-1.022
1680103794718096308,-0.075
1680103794725792348,0.427
1680103794733488388,0.067
1680103794741184428,-0.216
1680103794748880468,-0.094
1680103794756576508,-0.052000000000000005
1680103794764272548,-0.1
1680103794771968588,-0.067
1680103794779664628,-0.056
1680103794787360668,-0.084
1680103794795056708,-0.061
1680103794802752748,-0.033
1680103794810448788,-0.037
1680103794818144828,-0.027
1680103794825840868,-0.004
1680103794833536908,-0.006
1680103794841232948,-0.016
1680103794848928988,-0.012
1680103794856625028,-0.027
1680103794864321068,-0.056
1680103794872017108,-0.065
1680103794879713148,-0.061
1680103794887409188,-0.044
1680103794895105228,-0.023
1680103794902801268,-0.021
1680103794910497308,-0.012
1680103794918193348,0.006
1680103794925889388,0.002
1680103794933585428,0.004
1680103794941281468,0.035
1680103794948977508,0.063
1680103794956673548,0.077
1680103794964369588,0.092
1680103794972065628,0.107
1680103794979761668,0.117,,740
1680103794987457708,0.13
1680103794995153748,0.157
1680103795002849788,0.20600000000000002
1680103795010545828,0.248
1680103795018241868,0.26
1680103795025937908,0.273
1680103795033633948,0.307
1680103795041329988,0.332
1680103795049026028,0.336
1680103795056722068,0.34500000000000003
1680103795064418108,0.353
1680103795072114148,0.34700000000000003
1680103795079810188,0.338
1680103795087506228,0.34500000000000003
1680103795095202268,0.34500000000000003
1680103795102898308,0.305
1680103795110594348,0.254
1680103795118290388,0.246
1680103795125986428,0.26
1680103795133682468,0.258
1680103795141378508,0.256
1680103795149074548,0.267
1680103795156770616,0.269
1680103795164467074,0.256
1680103795172163532,0.258
1680103795179859990,0.275
1680103795187556448,0.271
1680103795195252906,0.233
1680103795202949364,0.191
1680103795210645822,0.185
1680103795218342280,0.195
1680103795226038738,0.164
1680103795233735196,0.08600000000000001
1680103795241431654,0.035
1680103795249128112,-0.006
1680103795256824570,-0.10300000000000001
1680103795264521028,-0.168
1680103795272217486,-0.147
1680103795279913944,-0.136
1680103795287610402,-0.17
1680103795295306860,-0.193
1680103795303003318,-0.18
1680103795310699776,-0.168
1680103795318396234,-0.17400000000000002
1680103795326092692,-0.166
1680103795333789150,-0.14
1680103795341485608,-0.14300000000000002
1680103795349182066,-0.17400000000000002
1680103795356878524,-0.17400000000000002
1680103795364574982,-0.147
1680103795372271440,-0.155
1680103795379967898,-0.187
1680103795387664356,-0.193
1680103795395360814,-0.17400000000000002
1680103795403057272,-0.138
1680103795410753730,-0.096
1680103795418450188,-0.063
1680103795426146646,-0.046
1680103795433843104,-0.044
1680103795441539562,-0.039
1680103795449236020,-0.012
1680103795456932478,0.021
1680103795464628936,0.031
1680103795472325394,0.046
1680103795480021852,0.054
1680103795487718310,-0.109
1680103795495414768,-0.5700000000000001
1680103795503111226,-1.058
1680103795510807684,-0.967
1680103795518504142,-0.10300000000000001
1680103795526200600,0.624
1680103795533897058,0.46
1680103795541593516,0.128
1680103795549289974,0.218
1680103795556986432,0.296
1680103795564682890,0.222
1680103795572379348,0.229
1680103795580075806,0.271
1680103795587772264,0.256
1680103795595468722,0.231
1680103795603165180,0.225
1680103795610861638,0.225
1680103795618558096,0.20600000000000002
1680103795626254554,0.191
1680103795633951012,0.20600000000000002
1680103795641647470,0.22
1680103795649343928,0.212
1680103795657040386,0.21
1680103795664736844,0.212
1680103795672433302,0.20400000000000001
1680103795680129760,0.195
1680103795687826218,0.20600000000000002
1680103795695522676,0.22
1680103795703219134,0.216
1680103795710915592,0.191
1680103795718612082,0.17200000000000001,81
1680103795726308540,0.153
1680103795734004998,0.096
1680103795741701456,0.048,,761
1680103795749397914,0.056
1680103795757094372,0.054
1680103795764790830,0.008
1680103795772487288,-0.031
1680103795780183746,-0.027
1680103795787880204,-0.006
1680103795795576662,0.002
1680103795803273120,0.006
1680103795810969578,0.037
1680103795818666036,0.084
1680103795826362494,0.10300000000000001
1680103795834058952,0.096
1680103795841755410,0.075
1680103795849451868,0.05
1680103795857148326,0.048
1680103795864844784,0.061
1680103795872541242,0.075
1680103795880237700,0.08600000000000001
1680103795887934158,0.08600000000000001
1680103795895630616,0.079
1680103795903327074,0.088
1680103795911023532,0.105
1680103795918719990,0.113
1680103795926416448,0.124
1680103795934112906,0.136
1680103795941809364,0.126
1680103795949505822,0.092
1680103795957202280,0.073
1680103795964898738,0.088
1680103795972595196,0.098
1680103795980291654,0.084
1680103795987988112,0.054
1680103795995684570,0.031
1680103796003381028,0.01
1680103796011077486,-0.021
1680103796018773944,-0.042
1680103796026470402,-0.044
1680103796034166860,-0.061
1680103796041863318,-0.084
1680103796049559776,-0.073
1680103796057256234,-0.056
1680103796064952692,-0.058
1680103796072649150,-0.067
1680103796080345608,-0.082
1680103796088042066,-0.113
1680103796095738524,-0.145
1680103796103434982,-0.138
1680103796111131440,-0.117
1680103796118827898,-0.107
1680103796126524356,-0.111
1680103796134220814,-0.115
1680103796141917272,-0.098
1680103796149613730,-0.069
1680103796157310188,-0.05
1680103796165006646,-0.039
1680103796172703104,-0.033
1680103796180399562,-0.021
1680103796188096020,-0.004
1680103796195792478,0.018000000000000002
1680103796203488936,0.044
1680103796211185394,0.056
1680103796218881852,0.044
1680103796226578310,0.008
1680103796234274768,-0.046
1680103796241971226,-0.105
1680103796249667684,-0.115
1680103796257364142,-0.073
1680103796265060600,-0.035
1680103796272757058,-0.035
1680103796280453548,-0.031,80
1680103796288149588,0.0
1680103796295845628,0.027
1680103796303541668,0.033
1680103796311237708,0.029
1680103796318933748,0.044
1680103796326629788,0.065
1680103796334325828,-0.025
1680103796342021868,-0.378
1680103796349717908,-0.919
1680103796357413948,-1.283
1680103796365109988,-0.929
1680103796372806028,0.035
1680103796380502068,0.517
1680103796388198108,0.20600000000000002
1680103796395894148,-0.018000000000000002
1680103796403590188,0.063
1680103796411286228,0.09
1680103796418982268,0.075
1680103796426678308,0.105
1680103796434374348,0.115
1680103796442070388,0.11900000000000001
1680103796449766428,0.13
1680103796457462468,0.126
1680103796465158508,0.128
1680103796472854548,0.149
1680103796480550588,0.166
1680103796488246628,0.161
1680103796495942668,0.155
1680103796503638708,0.17
1680103796511334748,0.183
1680103796519030788,0.178,,778
1680103796526726828,0.183
1680103796534422868,0.191
1680103796542118908,0.176
1680103796549814948,0.157
1680103796557510988,0.166
1680103796565207028,0.191
1680103796572903068,0.195
1680103796580599108,0.166
1680103796588295148,0.134
1680103796595991188,0.134
1680103796603687228,0.159
1680103796611383268,0.185
1680103796619079308,0.201
1680103796626775348,0.197
1680103796634471388,0.189
1680103796642167428,0.20800000000000002
1680103796649863468,0.244
1680103796657559508,0.277
1680103796665255548,0.309
1680103796672951588,0.336
1680103796680647628,0.353
1680103796688343668,0.363
1680103796696039708,0.359
1680103796703735748,0.353
1680103796711431788,0.368
1680103796719127828,0.387
1680103796726823868,0.353
1680103796734519908,0.258
1680103796742215948,0.17200000000000001
1680103796749911988,0.14300000000000002
1680103796757608028,0.128
1680103796765304068,0.088
1680103796773000108,0.042
1680103796780696148,0.006
1680103796788392188,-0.042
1680103796796088228,-0.084
1680103796803784268,-0.082
1680103796811480308,-0.07100000000000001
1680103796819176348,-0.096
1680103796826872388,-0.134
1680103796834568428,-0.14300000000000002
1680103796842264496,-0.138
1680103796849960536,-0.147
1680103796857656576,-0.14300000000000002
1680103796865352616,-0.13
1680103796873048656,-0.164
1680103796880744696,-0.227
1680103796888440736,-0.229
1680103796896136776,-0.197
1680103796903832816,-0.20400000000000001
1680103796911528856,-0.20800000000000002
1680103796919224896,-0.18
1680103796926920936,-0.155
1680103796934616976,-0.151
1680103796942313016,-0.14
1680103796950009056,-0.113
1680103796957705096,-0.1
1680103796965401136,-0.10300000000000001
1680103796973097176,-0.092
1680103796980793216,-0.067
1680103796988489256,-0.031
1680103796996185296,-0.016
1680103797003881336,-0.029
1680103797011577376,-0.01
1680103797019273416,0.023
1680103797026969456,0.035
1680103797034665496,0.05
1680103797042361536,0.084
1680103797050057576,0.088
1680103797057753616,0.056
1680103797065449656,0.037
1680103797073145696,0.012
1680103797080841736,-0.033
1680103797088537776,-0.023
1680103797096233816,0.048
1680103797103929856,0.075
1680103797111625896,0.061
1680103797119321936,0.073
1680103797127017976,0.098
1680103797134714016,0.11900000000000001
1680103797142410056,0.134
1680103797150106096,0.136
1680103797157802136,0.157
1680103797165498176,0.164
1680103797173194216,-0.056
1680103797180890256,-0.5740000000000001
1680103797188586296,-1.0110000000000001
1680103797196282336,-0.744
1680103797203978376,0.199
1680103797211674416,0.74
1680103797219370456,0.445
1680103797227066496,0.199
1680103797234762536,0.28600000000000003
1680103797242458576,0.246
1680103797250154616,0.14
1680103797257850656,0.178
1680103797265546696,0.20600000000000002
1680103797273242736,0.164
1680103797280938776,0.159
1680103797288634816,0.18,,764
1680103797296330856,0.168
1680103797304026896,0.17200000000000001
1680103797311722936,0.185
1680103797319418976,0.145
1680103797327115016,0.09
1680103797334811056,0.079
1680103797342507096,0.09
1680103797350203136,0.09
1680103797357899176,0.092
1680103797365595216,0.10300000000000001
1680103797373291256,0.098
1680103797380987296,0.084
1680103797388683336,0.092
1680103797396379376,0.10300000000000001
1680103797404075446,0.107,80
1680103797411771904,0.11900000000000001
1680103797419468362,0.122
1680103797427164820,0.132
1680103797434861278,0.159
1680103797442557736,0.17200000000000001
1680103797450254194,0.18
1680103797457950652,0.183
1680103797465647110,0.178
1680103797473343568,0.166
1680103797481040026,0.134
1680103797488736484,0.136
1680103797496432942,0.168
1680103797504129400,0.155
1680103797511825858,0.124
1680103797519522316,0.132
1680103797527218774,0.157
1680103797534915232,0.13
1680103797542611690,0.08600000000000001
1680103797550308148,0.061
1680103797558004606,0.002
1680103797565701064,-0.065
1680103797573397522,-0.082
1680103797581093980,-0.073
1680103797588790438,-0.079
1680103797596486896,-0.10300000000000001
1680103797604183354,-0.124
1680103797611879812,-0.117
1680103797619576270,-0.109
1680103797627272728,-0.117
1680103797634969186,-0.107
1680103797642665644,-0.075
1680103797650362102,-0.065
1680103797658058560,-0.075
1680103797665755018,-0.07100000000000001
1680103797673451476,-0.063
1680103797681147934,-0.061
1680103797688844392,-0.046
1680103797696540850,-0.021
1680103797704237308,-0.008
1680103797711933766,0.0
1680103797719630224,0.01
1680103797727326682,0.027
1680103797735023140,0.052000000000000005
1680103797742719598,0.039
1680103797750416056,-0.021
1680103797758112514,-0.05
1680103797765808972,-0.018000000000000002
1680103797773505430,-0.004
1680103797781201888,-0.023
1680103797788898346,-0.021
1680103797796594804,-0.002
1680103797804291262,0.004
1680103797811987720,-0.01
1680103797819684178,-0.018000000000000002
1680103797827380636,-0.01
1680103797835077094,-0.004
1680103797842773552,-0.004
1680103797850470010,0.021
1680103797858166468,0.058
1680103797865862926,0.067
1680103797873559384,0.046
1680103797881255842,0.033
1680103797888952300,0.027
1680103797896648758,0.016
1680103797904345216,0.035
1680103797912041674,0.1
1680103797919738132,0.147
1680103797927434590,0.138
1680103797935131048,0.134
1680103797942827506,0.164
1680103797950523964,0.195
1680103797958220422,0.199
1680103797965916912,0.201
1680103797973612952,0.22
1680103797981308992,0.23700000000000002
1680103797989005032,0.157
1680103797996701072,-0.185
1680103798004397112,-0.711
1680103798012093152,-0.9500000000000001
1680103798019789192,-0.399
1680103798027485232,0.538
1680103798035181272,0.751
1680103798042877312,0.328
1680103798050573352,0.17400000000000002
1680103798058269392,0.23900000000000002,,772
1680103798065965432,0.17400000000000002
1680103798073661472,0.122
1680103798081357512,0.153
1680103798089053552,0.149
1680103798096749592,0.138
1680103798104445632,0.151
1680103798112141672,0.138
1680103798119837712,0.126
1680103798127533752,0.14
1680103798135229792,0.149
1680103798142925832,0.14300000000000002
1680103798150621872,0.151
1680103798158317912,0.157
1680103798166013952,0.145
1680103798173709992,0.138
1680103798181406032,0.149
1680103798189102072,0.164
1680103798196798112,0.161
1680103798204494152,0.138
1680103798212190192,0.134
1680103798219886232,0.147
1680103798227582272,0.147
1680103798235278312,0.149
1680103798242974352,0.157
1680103798250670392,0.11900000000000001
1680103798258366432,0.027
1680103798266062472,-0.027
1680103798273758512,-0.023
1680103798281454552,-0.021
1680103798289150592,-0.031
1680103798296846632,-0.052000000000000005
1680103798304542672,-0.088
1680103798312238712,-0.115
1680103798319934752,-0.11900000000000001
1680103798327630792,-0.126
1680103798335326832,-0.13
1680103798343022872,-0.138
1680103798350718912,-0.153
1680103798358414952,-0.147
1680103798366110992,-0.128
1680103798373807032,-0.128
1680103798381503072,-0.138
1680103798389199112,-0.145
1680103798396895152,-0.138
1680103798404591192,-0.132
1680103798412287232,-0.134
1680103798419983272,-0.111
1680103798427679312,-0.09
1680103798435375352,-0.1
1680103798443071392,-0.105
1680103798450767432,-0.079
1680103798458463472,-0.056
1680103798466159512,-0.05
1680103798473855552,-0.05
1680103798481551592,-0.042
1680103798489247632,-0.025
1680103798496943672,-0.004
1680103798504639712,0.01
1680103798512335752,0.035
1680103798520031792,0.056
1680103798527727860,0.05,80
1680103798535423900,0.05
1680103798543119940,0.065
1680103798550815980,0.05
1680103798558512020,0.016
1680103798566208060,0.021
1680103798573904100,0.037
1680103798581600140,0.01
1680103798589296180,-0.037
1680103798596992220,-0.044
1680103798604688260,-0.021
1680103798612384300,-0.014
1680103798620080340,-0.025
1680103798627776380,-0.014
1680103798635472420,0.01
1680103798643168460,0.023
1680103798650864500,0.035
1680103798658560540,0.058
1680103798666256580,0.07100000000000001
1680103798673952620,0.073
1680103798681648660,0.08600000000000001
1680103798689344700,0.113
1680103798697040740,0.128
1680103798704736780,0.109
1680103798712432820,0.084
1680103798720128860,0.084
1680103798727824900,0.111
1680103798735520940,0.155
1680103798743216980,0.191
1680103798750913020,0.17
1680103798758609060,0.09
1680103798766305100,0.042
1680103798774001140,0.065
1680103798781697180,0.096
1680103798789393220,0.096
1680103798797089260,0.063
1680103798804785300,0.037
1680103798812481340,-0.027
1680103798820177380,-0.353
1680103798827873420,-0.912
1680103798835569460,-1.1480000000000001
1680103798843265500,-0.538
1680103798850961540,0.424
1680103798858657580,0.622,,803
1680103798866353620,0.214
1680103798874049660,0.13
1680103798881745700,0.271
1680103798889441740,0.233
1680103798897137780,0.185
1680103798904833820,0.233
1680103798912529860,0.241
1680103798920225900,0.22
1680103798927921940,0.23900000000000002
1680103798935617980,0.256
1680103798943314020,0.248
1680103798951010060,0.246
1680103798958706100,0.252
1680103798966402140,0.258
1680103798974098180,0.26
1680103798981794220,0.252
1680103798989490260,0.248
1680103798997186300,0.254
1680103799004882340,0.248
1680103799012578380,0.244
1680103799020274420,0.256
1680103799027970460,0.26
1680103799035666500,0.23900000000000002
1680103799043362540,0.197
1680103799051058580,0.178
1680103799058754620,0.191
1680103799066450660,0.18
1680103799074146700,0.138
1680103799081842740,0.122
1680103799089538808,0.134
1680103799097235266,0.134
1680103799104931724,0.107
1680103799112628182,0.077
1680103799120324640,0.046
1680103799128021098,-0.012
1680103799135717556,-0.048
1680103799143414014,-0.016
1680103799151110472,0.006
1680103799158806930,-0.002
1680103799166503388,0.012
1680103799174199846,0.035
1680103799181896304,0.037
1680103799189592762,0.025
1680103799197289220,0.029
1680103799204985678,0.05
1680103799212682136,0.048
1680103799220378594,0.014
1680103799228075052,0.014
1680103799235771510,0.046
1680103799243467968,0.052000000000000005
1680103799251164426,0.023
1680103799258860884,-0.021
1680103799266557342,-0.048
1680103799274253800,-0.056
1680103799281950258,-0.077
1680103799289646716,-0.094
1680103799297343174,-0.105
1680103799305039632,-0.11900000000000001
1680103799312736090,-0.13
1680103799320432548,-0.1
1680103799328129006,-0.063
1680103799335825464,-0.058
1680103799343521922,-0.048
1680103799351218380,-0.014
1680103799358914838,-0.002
1680103799366611296,-0.008
1680103799374307754,0.002
1680103799382004212,0.037
1680103799389700670,0.067
1680103799397397128,0.075
1680103799405093586,0.08600000000000001
1680103799412790044,0.092
1680103799420486502,0.09
1680103799428182960,0.094
1680103799435879418,0.124
1680103799443575876,0.17
1680103799451272334,0.189
1680103799458968792,0.164
1680103799466665250,0.155
1680103799474361708,0.189
1680103799482058166,0.214
1680103799489754624,0.193
1680103799497451082,0.17200000000000001
1680103799505147540,0.18
1680103799512843998,0.185
1680103799520540456,0.178
1680103799528236914,0.214
1680103799535933372,0.233
1680103799543629830,0.18
1680103799551326288,0.151
1680103799559022746,0.183
1680103799566719204,0.222
1680103799574415662,0.23500000000000001
1680103799582112120,0.216
1680103799589808578,0.20400000000000001
1680103799597505036,0.23700000000000002
1680103799605201494,0.199
1680103799612897952,-0.113
1680103799620594410,-0.641
1680103799628290868,-0.91
1680103799635987326,-0.397
1680103799643683784,0.546
1680103799651380274,0.8280000000000001,79
1680103799659076314,0.45
1680103799666772354,0.298
1680103799674468394,0.399
1680103799682164434,0.38
1680103799689860474,0.313
1680103799697556514,0.294
1680103799705252554,0.267
1680103799712948594,0.25,,852
1680103799720644634,0.256
1680103799728340674,0.233
1680103799736036714,0.20600000000000002
1680103799743732754,0.21
1680103799751428794,0.227
1680103799759124834,0.20800000000000002
1680103799766820874,0.149
1680103799774516914,0.094
1680103799782212954,0.035
1680103799789908994,-0.014
1680103799797605034,-0.014
1680103799805301074,-0.002
1680103799812997114,-0.018000000000000002
1680103799820693154,-0.052000000000000005
1680103799828389194,-0.056
1680103799836085234,-0.052000000000000005
1680103799843781274,-0.048
1680103799851477314,-0.044
1680103799859173354,-0.037
1680103799866869394,-0.014
1680103799874565434,0.002
1680103799882261474,0.012
1680103799889957514,0.039
1680103799897653554,0.056
1680103799905349594,0.061
1680103799913045634,0.061
1680103799920741674,0.065
1680103799928437714,0.077
1680103799936133754,0.1
1680103799943829794,0.132
1680103799951525834,0.155
1680103799959221874,0.14300000000000002
1680103799966917914,0.109
1680103799974613954,0.075
1680103799982309994,0.05
1680103799990006034,0.033
1680103799997702074,0.008
1680103800005398114,-0.021
1680103800013094154,-0.033
1680103800020790194,-0.029
1680103800028486234,-0.048
1680103800036182274,-0.077
1680103800043878314,-0.079
1680103800051574354,-0.082
1680103800059270394,-0.094
1680103800066966434,-0.082
1680103800074662474,-0.061
1680103800082358514,-0.05
1680103800090054554,-0.048
1680103800097750594,-0.046
1680103800105446634,-0.039
1680103800113142674,-0.029
1680103800120838714,-0.016
1680103800128534754,-0.004
1680103800136230794,0.01
1680103800143926834,0.016
1680103800151622874,0.018000000000000002
1680103800159318914,0.037
1680103800167014954,0.061
1680103800174710994,0.063
1680103800182407034,0.052000000000000005
1680103800190103074,0.061
1680103800197799114,0.082
1680103800205495154,0.088
1680103800213191222,0.088,78
1680103800220887332,0.113
1680103800228583442,0.132
1680103800236279552,0.088
1680103800243975662,0.031
1680103800251671772,0.037
1680103800259367882,0.065
1680103800267063992,0.052000000000000005
1680103800274760102,0.0
1680103800282456212,-0.033
1680103800290152322,-0.035
1680103800297848432,-0.052000000000000005
1680103800305544542,-0.07100000000000001
1680103800313240652,-0.058
1680103800320936762,-0.014
1680103800328632872,0.016
1680103800336328982,0.033
1680103800344025092,0.065
1680103800351721202,0.092
1680103800359417312,0.109
1680103800367113422,0.11900000000000001
1680103800374809532,0.13
1680103800382505642,0.147
1680103800390201752,0.157
1680103800397897862,0.138
1680103800405593972,-0.05
1680103800413290082,-0.54
1680103800420986192,-1.026
1680103800428682302,-0.8220000000000001
1680103800436378412,0.128
1680103800444074522,0.753
1680103800451770632,0.494
1680103800459466742,0.20800000000000002
1680103800467162852,0.305
1680103800474858962,0.334
1680103800482555072,0.269
1680103800490251182,0.309
1680103800497947292,0.35100000000000003
1680103800505643402,0.321
1680103800513339512,0.28800000000000003
1680103800521035622,0.256
1680103800528731732,0.22
1680103800536427842,0.212
1680103800544123952,0.212,,832
1680103800551820062,0.20800000000000002
1680103800559516172,0.20600000000000002
1680103800567212282,0.193
1680103800574908392,0.176
1680103800582604502,0.185
1680103800590300612,0.197
1680103800597996722,0.185
1680103800605692832,0.18
1680103800613388942,0.187
1680103800621085052,0.178
1680103800628781162,0.164
1680103800636477272,0.17
1680103800644173382,0.189
1680103800651869492,0.185
1680103800659565602,0.17
1680103800667261712,0.187
1680103800674957822,0.22
1680103800682653932,0.227
1680103800690350042,0.216
1680103800698046152,0.216
1680103800705742262,0.23500000000000001
1680103800713438372,0.26
1680103800721134482,0.28300000000000003
1680103800728830592,0.319
1680103800736526702,0.355
1680103800744222812,0.34900000000000003
1680103800751918922,0.311
1680103800759615032,0.271
1680103800767311142,0.225
1680103800775007258,0.151
1680103800782703646,0.067
1680103800790400034,0.002
1680103800798096422,-0.044
1680103800805792810,-0.084
1680103800813489198,-0.134
1680103800821185586,-0.161
1680103800828881974,-0.18
1680103800836578362,-0.248
1680103800844274750,-0.305
1680103800851971138,-0.28600000000000003
1680103800859667526,-0.271
1680103800867363914,-0.292
1680103800875060302,-0.29
1680103800882756690,-0.269
1680103800890453078,-0.273
1680103800898149466,-0.273
1680103800905845854,-0.244
1680103800913542242,-0.218
1680103800921238630,-0.218
1680103800928935018,-0.218
1680103800936631406,-0.201
1680103800944327794,-0.168
1680103800952024182,-0.145
1680103800959720570,-0.134
1680103800967416958,-0.126
1680103800975113346,-0.117
1680103800982809734,-0.11900000000000001
1680103800990506122,-0.109
1680103800998202510,-0.075
1680103801005898898,-0.061
1680103801013595286,-0.096
1680103801021291674,-0.138
1680103801028988062,-0.126
1680103801036684450,-0.09
1680103801044380838,-0.08600000000000001
1680103801052077226,-0.075
1680103801059773614,-0.05
1680103801067470002,-0.039
1680103801075166390,-0.031
1680103801082862778,-0.004
1680103801090559166,0.021
1680103801098255554,0.025
1680103801105951942,0.012
1680103801113648330,0.0
1680103801121344718,0.002
1680103801129041106,0.025
1680103801136737494,0.067
1680103801144433882,0.1
1680103801152130270,0.115
1680103801159826658,0.126
1680103801167523046,0.13
1680103801175219434,0.14
1680103801182915822,0.166
1680103801190612210,0.187
1680103801198308598,0.193
1680103801206004986,0.199
1680103801213701374,0.113
1680103801221397762,-0.256
1680103801229094150,-0.801
1680103801236790538,-0.963
1680103801244486926,-0.298
1680103801252183314,0.601
1680103801259879702,0.681
1680103801267576090,0.26
1680103801275272478,0.201
1680103801282968866,0.265
1680103801290665254,0.132
1680103801298361642,0.079
1680103801306058030,0.147
1680103801313754418,0.147
1680103801321450806,0.115
1680103801329147194,0.13
1680103801336843638,0.136,77
1680103801344540096,0.115
1680103801352236554,0.111
1680103801359933012,0.134
1680103801367629470,0.153,,820
1680103801375325928,0.153
1680103801383022386,0.14
1680103801390718844,0.134
1680103801398415302,0.124
1680103801406111760,0.082
1680103801413808218,0.031
1680103801421504676,0.031
1680103801429201134,0.044
1680103801436897592,0.002
1680103801444594050,-0.031
1680103801452290508,-0.008
1680103801459986966,0.012
1680103801467683424,0.012
1680103801475379882,0.027
1680103801483076340,0.039
1680103801490772798,0.046
1680103801498469256,0.056
1680103801506165714,0.044
1680103801513862172,0.042
1680103801521558630,0.069
1680103801529255088,0.08600000000000001
1680103801536951546,0.10300000000000001
1680103801544648004,0.155
1680103801552344462,0.212
1680103801560040920,0.231
1680103801567737378,0.225
1680103801575433836,0.199
1680103801583130294,0.166
1680103801590826752,0.145
1680103801598523210,0.147
1680103801606219668,0.14300000000000002
1680103801613916126,0.109
1680103801621612584,0.056
1680103801629309042,0.012
1680103801637005500,-0.018000000000000002
1680103801644701958,-0.039
1680103801652398416,-0.052000000000000005
1680103801660094874,-0.054
1680103801667791332,-0.065
1680103801675487790,-0.079
1680103801683184248,-0.075
1680103801690880706,-0.054
1680103801698577164,-0.048
1680103801706273622,-0.063
1680103801713970080,-0.075
1680103801721666538,-0.056
1680103801729362996,-0.033
1680103801737059454,-0.044
1680103801744755912,-0.061
1680103801752452370,-0.075
1680103801760148828,-0.10300000000000001
1680103801767845286,-0.126
1680103801775541744,-0.149
1680103801783238202,-0.197
1680103801790934660,-0.229
1680103801798631118,-0.22
1680103801806327576,-0.212
1680103801814024034,-0.197
1680103801821720492,-0.18
1680103801829416950,-0.185
1680103801837113408,-0.176
1680103801844809866,-0.149
1680103801852506324,-0.138
1680103801860202782,-0.14
1680103801867899240,-0.115
1680103801875595698,-0.073
1680103801883292156,-0.052000000000000005
1680103801890988614,-0.05
1680103801898685104,-0.035
1680103801906381144,-0.004
1680103801914077184,0.016
1680103801921773224,0.029
1680103801929469264,0.052000000000000005
1680103801937165304,0.044
1680103801944861344,-0.025
1680103801952557384,-0.096
1680103801960253424,-0.088
1680103801967949464,-0.035
1680103801975645504,-0.002
1680103801983341544,0.008
1680103801991037584,-0.006
1680103801998733624,-0.048
1680103802006429664,-0.075
1680103802014125704,-0.061
1680103802021821744,-0.031
1680103802029517784,-0.021
1680103802037213824,-0.014
1680103802044909864,0.002
1680103802052605904,-0.09
1680103802060301944,-0.488
1680103802067997984,-1.024
1680103802075694024,-1.1
1680103802083390064,-0.332
1680103802091086104,0.54
1680103802098782144,0.532
1680103802106478184,0.14300000000000002
1680103802114174224,0.17
1680103802121870264,0.29
1680103802129566304,0.216
1680103802137262344,0.193
1680103802144958384,0.258
1680103802152654424,0.256
1680103802160350464,0.233
1680103802168046504,0.244
1680103802175742544,0.23900000000000002
1680103802183438584,0.222,,823
1680103802191134624,0.233
1680103802198830664,0.246
1680103802206526704,0.252
1680103802214222744,0.254
1680103802221918784,0.23900000000000002
1680103802229614824,0.227
1680103802237310864,0.225
1680103802245006904,0.189
1680103802252702944,0.14300000000000002
1680103802260398984,0.145
1680103802268095024,0.151
1680103802275791064,0.126
1680103802283487104,0.075
1680103802291183144,0.029
1680103802298879184,0.025
1680103802306575224,0.023
1680103802314271264,-0.006
1680103802321967304,0.0
1680103802329663344,0.044
1680103802337359384,0.054
1680103802345055424,0.048
1680103802352751464,0.07100000000000001
1680103802360447504,0.094
1680103802368143544,0.105
1680103802375839584,0.134
1680103802383535624,0.187
1680103802391231664,0.218
1680103802398927704,0.193
1680103802406623744,0.168
1680103802414319784,0.187
1680103802422015824,0.195
1680103802429711864,0.17200000000000001
1680103802437407904,0.14300000000000002
1680103802445103944,0.115
1680103802452799984,0.069
1680103802460496052,0.018000000000000002,77
1680103802468192092,-0.006
1680103802475888132,-0.006
1680103802483584172,-0.016
1680103802491280212,-0.054
1680103802498976252,-0.094
1680103802506672292,-0.109
1680103802514368332,-0.14
1680103802522064372,-0.193
1680103802529760412,-0.187
1680103802537456452,-0.166
1680103802545152492,-0.193
1680103802552848532,-0.20600000000000002
1680103802560544572,-0.17
1680103802568240612,-0.145
1680103802575936652,-0.136
1680103802583632692,-0.126
1680103802591328732,-0.117
1680103802599024772,-0.105
1680103802606720812,-0.09
1680103802614416852,-0.079
1680103802622112892,-0.054
1680103802629808932,-0.031
1680103802637504972,-0.033
1680103802645201012,-0.029
1680103802652897052,-0.002
1680103802660593092,0.018000000000000002
1680103802668289132,0.029
1680103802675985172,0.044
1680103802683681212,0.056
1680103802691377252,0.061
1680103802699073292,0.073
1680103802706769332,0.094
1680103802714465372,0.117
1680103802722161412,0.14
1680103802729857452,0.147
1680103802737553492,0.128
1680103802745249532,0.113
1680103802752945572,0.109
1680103802760641612,0.1
1680103802768337652,0.077
1680103802776033692,0.063
1680103802783729732,0.054
1680103802791425772,0.033
1680103802799121812,0.023
1680103802806817852,0.044
1680103802814513892,0.044
1680103802822209932,0.018000000000000002
1680103802829905972,0.025
1680103802837602012,0.054
1680103802845298052,0.067
1680103802852994092,0.084
1680103802860690132,0.094
1680103802868386172,-0.075
1680103802876082212,-0.546
1680103802883778252,-1.032
1680103802891474292,-0.904
1680103802899170332,-0.002
1680103802906866372,0.719
1680103802914562412,0.53
1680103802922258452,0.17200000000000001
1680103802929954492,0.222
1680103802937650532,0.28600000000000003
1680103802945346572,0.233
1680103802953042612,0.25
1680103802960738652,0.277
1680103802968434692,0.23700000000000002
1680103802976130732,0.214
1680103802983826772,0.214,,794
1680103802991522812,0.195
1680103802999218852,0.17200000000000001
1680103803006914892,0.157
1680103803014610932,0.157
1680103803022307000,0.159
1680103803030003458,0.164
1680103803037699916,0.183
1680103803045396374,0.191
1680103803053092832,0.138
1680103803060789290,0.061
1680103803068485748,0.037
1680103803076182206,0.056
1680103803083878664,0.052000000000000005
1680103803091575122,0.025
1680103803099271580,0.016
1680103803106968038,0.025
1680103803114664496,0.025
1680103803122360954,0.023
1680103803130057412,0.044
1680103803137753870,0.075
1680103803145450328,0.082
1680103803153146786,0.077
1680103803160843244,0.10300000000000001
1680103803168539702,0.132
1680103803176236160,0.159
1680103803183932618,0.18
1680103803191629076,0.18
1680103803199325534,0.178
1680103803207021992,0.195
1680103803214718450,0.212
1680103803222414908,0.20600000000000002
1680103803230111366,0.151
1680103803237807824,0.077
1680103803245504282,0.033
1680103803253200740,0.01
1680103803260897198,-0.014
1680103803268593656,-0.037
1680103803276290114,-0.054
1680103803283986572,-0.08600000000000001
1680103803291683030,-0.157
1680103803299379488,-0.222
1680103803307075946,-0.22
1680103803314772404,-0.197
1680103803322468862,-0.20600000000000002
1680103803330165320,-0.22
1680103803337861778,-0.216
1680103803345558236,-0.195
1680103803353254694,-0.178
1680103803360951152,-0.161
1680103803368647610,-0.145
1680103803376344068,-0.134
1680103803384040526,-0.132
1680103803391736984,-0.11900000000000001
1680103803399433442,-0.092
1680103803407129900,-0.058
1680103803414826358,-0.042
1680103803422522816,-0.046
1680103803430219274,-0.031
1680103803437915732,0.006
1680103803445612190,0.021
1680103803453308648,0.025
1680103803461005106,0.052000000000000005
1680103803468701564,0.058
1680103803476398022,0.031
1680103803484094480,0.027
1680103803491790938,0.048
1680103803499487396,0.061
1680103803507183854,0.065
1680103803514880312,0.077
1680103803522576770,0.10300000000000001
1680103803530273228,0.124
1680103803537969686,0.13
1680103803545666144,0.145
1680103803553362602,0.164
1680103803561059060,0.14
1680103803568755518,0.096
1680103803576451976,0.092
1680103803584148466,0.124,77
1680103803591844506,0.178
1680103803599540546,0.218
1680103803607236586,0.20400000000000001
1680103803614932626,0.17200000000000001
1680103803622628666,0.166
1680103803630324706,0.149
1680103803638020746,0.124
1680103803645716786,0.14300000000000002
1680103803653412826,0.157
1680103803661108866,0.151
1680103803668804906,0.126
1680103803676500946,-0.105
1680103803684196986,-0.628
1680103803691893026,-1.039
1680103803699589066,-0.719
1680103803707285106,0.222
1680103803714981146,0.713
1680103803722677186,0.378
1680103803730373226,0.128
1680103803738069266,0.265
1680103803745765306,0.279
1680103803753461346,0.185
1680103803761157386,0.212
1680103803768853426,0.248
1680103803776549466,0.227,,796
1680103803784245506,0.216
1680103803791941546,0.166
1680103803799637586,0.065
1680103803807333626,0.021
1680103803815029666,0.042
1680103803822725706,0.048
1680103803830421746,0.035
1680103803838117786,0.025
1680103803845813826,0.025
1680103803853509866,0.044
1680103803861205906,0.069
1680103803868901946,0.073
1680103803876597986,0.046
1680103803884294026,0.025
1680103803891990066,0.035
1680103803899686106,0.037
1680103803907382146,0.033
1680103803915078186,0.056
1680103803922774226,0.073
1680103803930470266,0.063
1680103803938166306,0.069
1680103803945862346,0.10300000000000001
1680103803953558386,0.128
1680103803961254426,0.126
1680103803968950466,0.1
1680103803976646506,0.069
1680103803984342546,0.05
1680103803992038586,0.052000000000000005
1680103803999734626,0.08600000000000001
1680103804007430666,0.132
1680103804015126706,0.134
1680103804022822746,0.09
1680103804030518786,0.054
1680103804038214826,0.044
1680103804045910866,0.018000000000000002
1680103804053606906,-0.006
1680103804061302946,-0.006
1680103804068998986,-0.016
1680103804076695026,-0.046
1680103804084391066,-0.052000000000000005
1680103804092087106,-0.042
1680103804099783146,-0.039
1680103804107479186,-0.048
1680103804115175226,-0.052000000000000005
1680103804122871266,-0.058
1680103804130567306,-0.05
1680103804138263346,-0.039
1680103804145959416,-0.037
1680103804153655874,-0.027
1680103804161352332,-0.029
1680103804169048790,-0.044
1680103804176745248,-0.035
1680103804184441706,-0.002
1680103804192138164,0.023
1680103804199834622,0.025
1680103804207531080,0.0
1680103804215227538,-0.033
1680103804222923996,-0.073
1680103804230620454,-0.117
1680103804238316912,-0.13
1680103804246013370,-0.109
1680103804253709828,-0.113
1680103804261406286,-0.122
1680103804269102744,-0.09
1680103804276799202,-0.056
1680103804284495660,-0.05
1680103804292192118,-0.056
1680103804299888576,-0.09
1680103804307585034,-0.151
1680103804315281492,-0.17
1680103804322977950,-0.14300000000000002
1680103804330674408,-0.11900000000000001
1680103804338370866,-0.098
1680103804346067324,-0.088
1680103804353763782,-0.082
1680103804361460240,-0.067
1680103804369156698,-0.056
1680103804376853156,-0.061
1680103804384549614,-0.067
1680103804392246072,-0.065
1680103804399942530,-0.033
1680103804407638988,0.027
1680103804415335446,0.063
1680103804423031904,0.075
1680103804430728362,0.10300000000000001
1680103804438424820,0.115
1680103804446121278,0.111
1680103804453817736,0.11900000000000001
1680103804461514194,0.109
1680103804469210652,0.08600000000000001
1680103804476907110,0.092
1680103804484603568,-0.006
1680103804492300026,-0.40800000000000003
1680103804499996484,-0.9550000000000001
1680103804507692942,-1.07
1680103804515389400,-0.353
1680103804523085858,0.534
1680103804530782316,0.5760000000000001
1680103804538478774,0.178
1680103804546175232,0.176
1680103804553871690,0.307
1680103804561568148,0.254
1680103804569264606,0.233
1680103804576961064,0.281
1680103804584657522,0.269
1680103804592353980,0.23700000000000002,,812
1680103804600050438,0.258
1680103804607746896,0.28600000000000003
1680103804615443354,0.273
1680103804623139812,0.248
1680103804630836270,0.254
1680103804638532728,0.273
1680103804646229186,0.273
1680103804653925644,0.262
1680103804661622102,0.269
1680103804669318560,0.265
1680103804677015018,0.244
1680103804684711476,0.241
1680103804692407934,0.256
1680103804700104392,0.248
1680103804707800882,0.20600000000000002,77
1680103804715496922,0.164
1680103804723192962,0.164
1680103804730889002,0.17200000000000001
1680103804738585042,0.17
1680103804746281082,0.18
1680103804753977122,0.195
1680103804761673162,0.17400000000000002
1680103804769369202,0.113
1680103804777065242,0.084
1680103804784761282,0.105
1680103804792457322,0.113
1680103804800153362,0.084
1680103804807849402,0.035
1680103804815545442,-0.006
1680103804823241482,-0.021
1680103804830937522,-0.027
1680103804838633562,-0.052000000000000005
1680103804846329602,-0.079
1680103804854025642,-0.105
1680103804861721682,-0.145
1680103804869417722,-0.153
1680103804877113762,-0.14300000000000002
1680103804884809802,-0.149
1680103804892505842,-0.17
1680103804900201882,-0.176
1680103804907897922,-0.176
1680103804915593962,-0.176
1680103804923290002,-0.17
1680103804930986042,-0.153
1680103804938682082,-0.136
1680103804946378122,-0.145
1680103804954074162,-0.17200000000000001
1680103804961770202,-0.176
1680103804969466242,-0.157
1680103804977162282,-0.149
1680103804984858322,-0.14300000000000002
1680103804992554362,-0.128
1680103805000250402,-0.115
1680103805007946442,-0.105
1680103805015642482,-0.08600000000000001
1680103805023338522,-0.061
1680103805031034562,-0.042
1680103805038730602,-0.037
1680103805046426642,-0.025
1680103805054122682,0.004
1680103805061818722,0.018000000000000002
1680103805069514762,0.027
1680103805077210802,0.048
1680103805084906842,0.058
1680103805092602882,0.061
1680103805100298922,0.079
1680103805107994962,0.105
1680103805115691002,0.11900000000000001
1680103805123387042,0.128
1680103805131083082,0.124
1680103805138779122,0.126
1680103805146475162,0.153
1680103805154171202,0.176
1680103805161867242,0.183
1680103805169563282,0.197
1680103805177259322,0.216
1680103805184955362,0.21
1680103805192651402,0.178
1680103805200347442,0.134
1680103805208043482,0.10300000000000001
1680103805215739522,0.08600000000000001
1680103805223435562,0.088
1680103805231131602,0.13
1680103805238827642,0.17200000000000001
1680103805246523682,0.168
1680103805254219722,0.166
1680103805261915762,0.199
1680103805269611830,0.212,76
1680103805277308288,0.191
1680103805285004746,0.189
1680103805292701204,0.222
1680103805300397662,0.25
1680103805308094120,0.11900000000000001
1680103805315790578,-0.357
1680103805323487036,-0.9590000000000001
1680103805331183494,-1.056
1680103805338879952,-0.336
1680103805346576410,0.494
1680103805354272868,0.511
1680103805361969326,0.109
1680103805369665784,0.052000000000000005
1680103805377362242,0.147
1680103805385058700,0.128
1680103805392755158,0.11900000000000001
1680103805400451616,0.14
1680103805408148074,0.124
1680103805415844532,0.115
1680103805423540990,0.13,,838
1680103805431237448,0.132
1680103805438933906,0.124
1680103805446630364,0.098
1680103805454326822,0.05
1680103805462023280,0.025
1680103805469719738,0.046
1680103805477416196,0.069
1680103805485112654,0.065
1680103805492809112,0.048
1680103805500505570,0.048
1680103805508202028,0.061
1680103805515898486,0.063
1680103805523594944,0.052000000000000005
1680103805531291402,0.061
1680103805538987860,0.077
1680103805546684318,0.069
1680103805554380776,0.058
1680103805562077234,0.077
1680103805569773692,0.10300000000000001
1680103805577470150,0.109
1680103805585166608,0.117
1680103805592863066,0.13
1680103805600559524,0.136
1680103805608255982,0.149
1680103805615952440,0.178
1680103805623648898,0.22
1680103805631345356,0.23900000000000002
1680103805639041814,0.227
1680103805646738272,0.225
1680103805654434730,0.252
1680103805662131188,0.26
1680103805669827646,0.23900000000000002
1680103805677524104,0.21
1680103805685220562,0.166
1680103805692917020,0.084
1680103805700613478,0.01
1680103805708309936,-0.006
1680103805716006394,0.006
1680103805723702852,-0.01
1680103805731399310,-0.048
1680103805739095768,-0.054
1680103805746792226,-0.042
1680103805754488684,-0.054
1680103805762185142,-0.058
1680103805769881600,-0.044
1680103805777578058,-0.05
1680103805785274516,-0.069
1680103805792970974,-0.058
1680103805800667432,-0.035
1680103805808363890,-0.044
1680103805816060348,-0.1
1680103805823756806,-0.153
1680103805831453296,-0.149
1680103805839149336,-0.128
1680103805846845376,-0.132
1680103805854541416,-0.13
1680103805862237456,-0.1
1680103805869933496,-0.1
1680103805877629536,-0.166
1680103805885325576,-0.212
1680103805893021616,-0.178
1680103805900717656,-0.145
1680103805908413696,-0.159
1680103805916109736,-0.161
1680103805923805776,-0.124
1680103805931501816,-0.105
1680103805939197856,-0.128
1680103805946893896,-0.13
1680103805954589936,-0.094
1680103805962285976,-0.09
1680103805969982016,-0.09
1680103805977678056,-0.058
1680103805985374096,-0.033
1680103805993070136,-0.029
1680103806000766176,-0.033
1680103806008462216,-0.052000000000000005
1680103806016158256,-0.048
1680103806023854296,0.006
1680103806031550336,0.054
1680103806039246376,0.075
1680103806046942416,0.096
1680103806054638456,0.109
1680103806062334496,0.109
1680103806070030536,0.122
1680103806077726576,0.136
1680103806085422616,0.14300000000000002
1680103806093118656,0.164
1680103806100814696,0.161
1680103806108510736,-0.044
1680103806116206776,-0.534
1680103806123902816,-0.988
1680103806131598856,-0.772
1680103806139294896,0.18
1680103806146990936,0.803
1680103806154686976,0.53
1680103806162383016,0.233
1680103806170079056,0.33
1680103806177775096,0.368
1680103806185471136,0.28600000000000003
1680103806193167176,0.267
1680103806200863216,0.271
1680103806208559256,0.248
1680103806216255296,0.248
1680103806223951336,0.277
1680103806231647376,0.28600000000000003
1680103806239343416,0.273,,814
1680103806247039456,0.275
1680103806254735496,0.28600000000000003
1680103806262431536,0.29
1680103806270127576,0.281
1680103806277823616,0.273
1680103806285519656,0.273
1680103806293215696,0.269
1680103806300911736,0.256
1680103806308607776,0.25
1680103806316303816,0.218
1680103806323999856,0.13
1680103806331695896,0.065
1680103806339391936,0.065
1680103806347087976,0.065
1680103806354784016,0.046
1680103806362480056,0.05
1680103806370176096,0.079
1680103806377872136,0.094
1680103806385568176,0.096
1680103806393264244,0.105,76
1680103806400960284,0.13
1680103806408656324,0.161
1680103806416352364,0.183
1680103806424048404,0.17
1680103806431744444,0.149
1680103806439440484,0.145
1680103806447136524,0.115
1680103806454832564,0.063
1680103806462528604,0.061
1680103806470224644,0.067
1680103806477920684,0.029
1680103806485616724,0.0
1680103806493312764,-0.006
1680103806501008804,-0.031
1680103806508704844,-0.08600000000000001
1680103806516400884,-0.132
1680103806524096924,-0.14
1680103806531792964,-0.134
1680103806539489004,-0.145
1680103806547185044,-0.151
1680103806554881084,-0.149
1680103806562577124,-0.159
1680103806570273164,-0.168
1680103806577969204,-0.149
1680103806585665244,-0.122
1680103806593361284,-0.115
1680103806601057324,-0.11900000000000001
1680103806608753364,-0.117
1680103806616449404,-0.1
1680103806624145444,-0.08600000000000001
1680103806631841484,-0.079
1680103806639537524,-0.056
1680103806647233564,-0.031
1680103806654929604,-0.027
1680103806662625644,-0.029
1680103806670321684,-0.027
1680103806678017724,-0.035
1680103806685713764,-0.052000000000000005
1680103806693409804,-0.05
1680103806701105844,-0.039
1680103806708801884,-0.029
1680103806716497924,-0.014
1680103806724193964,0.0
1680103806731890004,0.018000000000000002
1680103806739586044,0.037
1680103806747282084,0.037
1680103806754978124,0.033
1680103806762674164,0.061
1680103806770370204,0.082
1680103806778066244,0.079
1680103806785762284,0.082
1680103806793458324,0.1
1680103806801154364,0.115
1680103806808850404,0.10300000000000001
1680103806816546444,0.056
1680103806824242484,-0.008
1680103806831938524,-0.063
1680103806839634564,-0.082
1680103806847330604,-0.048
1680103806855026644,0.006
1680103806862722684,0.029
1680103806870418724,0.029
1680103806878114764,0.044
1680103806885810804,0.058
1680103806893506844,0.063
1680103806901202884,0.075
1680103806908898924,0.10300000000000001
1680103806916594964,0.122
1680103806924291004,0.027
1680103806931987044,-0.338
1680103806939683084,-0.889
1680103806947379124,-1.165
1680103806955075192,-0.656
1680103806962771650,0.309
1680103806970468108,0.612
1680103806978164566,0.212
1680103806985861024,0.035
1680103806993557482,0.13
1680103807001253940,0.111
1680103807008950398,0.077
1680103807016646856,0.107
1680103807024343314,0.092
1680103807032039772,0.082
1680103807039736230,0.113
1680103807047432688,0.117,,807
1680103807055129146,0.111
1680103807062825604,0.132
1680103807070522062,0.14
1680103807078218520,0.124
1680103807085914978,0.128
1680103807093611436,0.153
1680103807101307894,0.161
1680103807109004352,0.151
1680103807116700810,0.145
1680103807124397268,0.155
1680103807132093726,0.159
1680103807139790184,0.149
1680103807147486642,0.153
1680103807155183100,0.166
1680103807162879558,0.147
1680103807170576016,0.105
1680103807178272474,0.092
1680103807185968932,0.117
1680103807193665390,0.132
1680103807201361848,0.126
1680103807209058306,0.134
1680103807216754764,0.155
1680103807224451222,0.17
1680103807232147680,0.185
1680103807239844138,0.225
1680103807247540596,0.267
1680103807255237054,0.258
1680103807262933512,0.23500000000000001
1680103807270629970,0.248
1680103807278326428,0.275
1680103807286022886,0.271
1680103807293719344,0.23500000000000001
1680103807301415802,0.191
1680103807309112260,0.161
1680103807316808718,0.126
1680103807324505176,0.054
1680103807332201634,-0.031
1680103807339898092,-0.077
1680103807347594550,-0.1
1680103807355291008,-0.117
1680103807362987466,-0.117
1680103807370683924,-0.109
1680103807378380382,-0.115
1680103807386076840,-0.122
1680103807393773298,-0.117
1680103807401469756,-0.107
1680103807409166214,-0.107
1680103807416862672,-0.122
1680103807424559130,-0.124
1680103807432255588,-0.111
1680103807439952046,-0.11900000000000001
1680103807447648504,-0.11900000000000001
1680103807455344962,-0.092
1680103807463041420,-0.075
1680103807470737878,-0.067
1680103807478434336,-0.05
1680103807486130794,-0.037
1680103807493827252,-0.033
1680103807501523710,-0.025
1680103807509220168,-0.002
1680103807516916660,0.025,76
1680103807524612282,0.033
1680103807532307904,0.029
1680103807540003526,0.044
1680103807547699148,0.069
1680103807555394770,0.082
1680103807563090392,0.094
1680103807570786014,0.115
1680103807578481636,0.111
1680103807586177258,0.058
1680103807593872880,0.012
1680103807601568502,0.029
1680103807609264124,0.065
1680103807616959746,0.056
1680103807624655368,0.048
1680103807632350990,0.061
1680103807640046612,0.065
1680103807647742234,0.052000000000000005
1680103807655437856,0.031
1680103807663133478,0.0
1680103807670829100,-0.01
1680103807678524722,0.025
1680103807686220344,0.048
1680103807693915966,0.058
1680103807701611588,0.077
1680103807709307210,0.08600000000000001
1680103807717002832,0.084
1680103807724698454,0.098
1680103807732394076,0.115
1680103807740089698,0.132
1680103807747785320,0.145
1680103807755480942,-0.025
1680103807763176564,-0.525
1680103807770872186,-1.028
1680103807778567808,-0.87
1680103807786263430,0.037
1680103807793959052,0.708
1680103807801654674,0.5
1680103807809350296,0.176
1680103807817045918,0.25
1680103807824741540,0.298
1680103807832437162,0.185
1680103807840132784,0.153
1680103807847828406,0.185
1680103807855524028,0.151
1680103807863219650,0.117,,813
1680103807870915272,0.145
1680103807878610894,0.168
1680103807886306516,0.153
1680103807894002138,0.145
1680103807901697760,0.14
1680103807909393382,0.105
1680103807917089004,0.061
1680103807924784626,0.054
1680103807932480248,0.07100000000000001
1680103807940175870,0.065
1680103807947871492,0.044
1680103807955567114,0.037
1680103807963262736,0.054
1680103807970958358,0.065
1680103807978653980,0.067
1680103807986349602,0.069
1680103807994045224,0.07100000000000001
1680103808001740846,0.07100000000000001
1680103808009436468,0.077
1680103808017132090,0.092
1680103808024827712,0.111
1680103808032523334,0.11900000000000001
1680103808040218956,0.113
1680103808047914578,0.115
1680103808055610200,0.145
1680103808063305822,0.17
1680103808071001444,0.176
1680103808078697090,0.183
1680103808086393130,0.20600000000000002
1680103808094089170,0.229
1680103808101785210,0.216
1680103808109481250,0.187
1680103808117177290,0.18
1680103808124873330,0.153
1680103808132569370,0.079
1680103808140265410,0.046
1680103808147961450,0.052000000000000005
1680103808155657490,0.01
1680103808163353530,-0.039
1680103808171049570,-0.033
1680103808178745610,-0.042
1680103808186441650,-0.109
1680103808194137690,-0.159
1680103808201833730,-0.153
1680103808209529770,-0.145
1680103808217225810,-0.168
1680103808224921850,-0.18
1680103808232617890,-0.159
1680103808240313930,-0.132
1680103808248009970,-0.124
1680103808255706010,-0.117
1680103808263402050,-0.10300000000000001
1680103808271098090,-0.098
1680103808278794130,-0.10300000000000001
1680103808286490170,-0.08600000000000001
1680103808294186210,-0.046
1680103808301882250,-0.018000000000000002
1680103808309578290,-0.021
1680103808317274330,-0.023
1680103808324970370,-0.023
1680103808332666410,-0.073
1680103808340362450,-0.126
1680103808348058490,-0.111
1680103808355754530,-0.08600000000000001
1680103808363450570,-0.1
1680103808371146610,-0.109
1680103808378842650,-0.077
1680103808386538690,-0.037
1680103808394234730,-0.029
1680103808401930770,-0.05
1680103808409626810,-0.067
1680103808417322850,-0.054
1680103808425018890,-0.029
1680103808432714930,-0.01
1680103808440410970,0.012
1680103808448107010,0.021
1680103808455803050,-0.004
1680103808463499090,-0.021
1680103808471195130,0.0
1680103808478891170,0.037
1680103808486587210,0.069
1680103808494283250,0.092
1680103808501979290,0.105
