ts,red,ir,green
1680103798870608,116012.0,132297.0,10811.0
1680103798880608,115991.0,132352.0,10836.0
1680103798888608,115987.0,132333.0,10806.0
1680103798898608,116002.0,132329.0,10827.0
1680103798908608,115971.0,132374.0,10825.0
1680103798919608,116018.0,132372.0,10794.0
1680103798928608,116027.0,132359.0,10823.0
1680103798938608,116029.0,132408.0,10812.0
1680103798949607,116015.0,132402.0,10807.0
1680103798959607,116019.0,132423.0,10808.0
1680103798968608,116057.0,132436.0,10816.0
1680103798978608,116054.0,132408.0,10818.0
1680103798988608,116009.0,132448.0,10813.0
1680103798999607,116049.0,132474.0,10793.0
1680103799008607,116061.0,132451.0,10818.0
1680103799018607,116066.0,132438.0,10819.0
1680103799028608,116072.0,132440.0,10826.0
1680103799039608,116025.0,132472.0,10807.0
1680103799049608,116035.0,132485.0,10809.0
1680103799059608,116049.0,132457.0,10813.0
1680103799070608,116045.0,132438.0,10807.0
1680103799078607,115992.0,132449.0,10808.0
1680103799088607,116055.0,132430.0,10779.0
1680103799098607,116030.0,132410.0,10825.0
1680103799108607,116001.0,132427.0,10824.0
1680103799119607,116046.0,132398.0,10798.0
1680103799128607,116036.0,132359.0,10815.0
1680103799138607,116026.0,132401.0,10824.0
1680103799149607,115989.0,132383.0,10825.0
1680103799158607,116021.0,132411.0,10807.0
1680103799169607,116023.0,132346.0,10812.0
1680103799177607,116021.0,132402.0,10807.0
1680103799188607,115995.0,132383.0,10762.0
1680103799199607,115981.0,132403.0,10804.0
1680103799209608,116012.0,132409.0,10808.0
1680103799217608,116013.0,132371.0,10810.0
1680103799228608,116033.0,132368.0,10791.0
1680103799239607,116019.0,132347.0,10820.0
1680103799248607,116017.0,132399.0,10811.0
1680103799258607,116010.0,132390.0,10818.0
1680103799268607,116003.0,132371.0,10813.0
1680103799278607,115969.0,132386.0,10819.0
1680103799289607,116007.0,132357.0,10804.0
1680103799297607,115987.0,132332.0,10817.0
1680103799308607,115979.0,132339.0,10816.0
1680103799318607,115948.0,132299.0,10818.0
1680103799328607,115911.0,132198.0,10803.0
1680103799338607,115880.0,132182.0,10775.0
1680103799350607,115834.0,132160.0,10805.0
1680103799360607,115796.0,132053.0,10826.0
1680103799368607,115749.0,132045.0,10803.0
1680103799379607,115738.0,132006.0,10799.0
1680103799388608,115685.0,131955.0,10817.0
1680103799398608,115739.0,131990.0,10799.0
1680103799409608,115747.0,131997.0,10786.0
1680103799418608,115742.0,131987.0,10806.0
1680103799428608,115750.0,132006.0,10807.0
1680103799438608,115752.0,132043.0,10810.0
1680103799448608,115776.0,132062.0,10800.0
1680103799458608,115746.0,132082.0,10814.0
1680103799468608,115755.0,132096.0,10809.0
1680103799478608,115828.0,132104.0,10793.0
1680103799488608,115806.0,132084.0,10815.0
1680103799499607,115854.0,132154.0,10802.0
1680103799508607,115878.0,132181.0,10794.0
1680103799518607,115875.0,132146.0,10802.0
1680103799528607,115894.0,132204.0,10811.0
1680103799538607,115943.0,132231.0,10807.0
1680103799548607,115911.0,132239.0,10768.0
1680103799559607,115907.0,132238.0,10803.0
1680103799570608,115874.0,132255.0,10840.0
1680103799578607,115922.0,132234.0,10774.0
1680103799587607,115917.0,132236.0,10780.0
1680103799598607,115895.0,132210.0,10807.0
1680103799608607,115882.0,132224.0,10801.0
1680103799619607,115891.0,132188.0,10808.0
1680103799628607,115870.0,132167.0,10804.0
1680103799638607,115846.0,132138.0,10803.0
1680103799648607,115848.0,132141.0,10812.0
1680103799659607,115850.0,132182.0,10790.0
1680103799670607,115811.0,132110.0,10797.0
1680103799677607,115814.0,132072.0,10790.0
1680103799688607,115808.0,132107.0,10796.0
1680103799699607,115817.0,132119.0,10774.0
1680103799708607,115817.0,132086.0,10800.0
1680103799718607,115808.0,132080.0,10807.0
1680103799728607,115755.0,132102.0,10803.0
1680103799738607,115784.0,132109.0,10793.0
1680103799749608,115827.0,132099.0,10810.0
1680103799758608,115816.0,132058.0,10791.0
1680103799768608,115828.0,132112.0,10801.0
1680103799778608,115838.0,132069.0,10795.0
1680103799789608,115844.0,132139.0,10794.0
1680103799797608,115888.0,132139.0,10805.0
1680103799809608,115840.0,132150.0,10770.0
1680103799820608,115840.0,132145.0,10794.0
1680103799830608,115837.0,132136.0,10818.0
1680103799837607,115854.0,132129.0,10799.0
1680103799848607,115822.0,132139.0,10801.0
1680103799858607,115805.0,132155.0,10802.0
1680103799868607,115859.0,132131.0,10757.0
1680103799879607,115828.0,132116.0,10801.0
1680103799887607,115845.0,132159.0,10799.0
1680103799898607,115796.0,132132.0,10809.0
1680103799908607,115835.0,132125.0,10784.0
1680103799918607,115796.0,132085.0,10796.0
1680103799928608,115819.0,132135.0,10787.0
1680103799937608,115871.0,132103.0,10795.0
1680103799948608,115814.0,132124.0,10754.0
1680103799959607,115792.0,132098.0,10778.0
1680103799968608,115808.0,132121.0,10781.0
1680103799979607,115775.0,132051.0,10789.0
1680103799990607,115798.0,132056.0,10784.0
1680103800000607,115780.0,132041.0,10808.0
1680103800007607,115781.0,132050.0,10784.0
1680103800018607,115757.0,132028.0,10762.0
1680103800028607,115768.0,132048.0,10794.0
1680103800038607,115774.0,131990.0,10778.0
1680103800047607,115736.0,132031.0,10791.0
1680103800058607,115767.0,132041.0,10769.0
1680103800068607,115761.0,132003.0,10794.0
1680103800078607,115750.0,131975.0,10782.0
1680103800087607,115690.0,132015.0,10782.0
1680103800098607,115721.0,131984.0,10740.0
1680103800108608,115713.0,131963.0,10777.0
1680103800118608,115721.0,131920.0,10784.0
1680103800129608,115649.0,131894.0,10772.0
1680103800138608,115614.0,131878.0,10773.0
1680103800147608,115566.0,131756.0,10781.0
1680103800158608,115549.0,131717.0,10743.0
1680103800169608,115513.0,131676.0,10775.0
1680103800178608,115485.0,131600.0,10785.0
1680103800188608,115490.0,131643.0,10753.0
1680103800198608,115466.0,131616.0,10779.0
1680103800208608,115463.0,131655.0,10782.0
1680103800217608,115440.0,131664.0,10770.0
1680103800228608,115506.0,131681.0,10760.0
1680103800238608,115527.0,131700.0,10779.0
1680103800248607,115565.0,131726.0,10772.0
1680103800259607,115548.0,131765.0,10755.0
1680103800269607,115570.0,131771.0,10773.0
1680103800280607,115572.0,131803.0,10820.0
1680103800290608,115606.0,131803.0,10788.0
1680103800297608,115607.0,131798.0,10769.0
1680103800308607,115605.0,131871.0,10752.0
1680103800318607,115641.0,131893.0,10773.0
1680103800328607,115657.0,131909.0,10776.0
1680103800337607,115611.0,131927.0,10784.0
1680103800348607,115633.0,131925.0,10779.0
1680103800358607,115686.0,131938.0,10772.0
1680103800368607,115633.0,131865.0,10779.0
1680103800378607,115659.0,131926.0,10765.0
1680103800387607,115663.0,131903.0,10754.0
1680103800398607,115644.0,131892.0,10766.0
1680103800408607,115649.0,131873.0,10742.0
1680103800419607,115620.0,131875.0,10766.0
1680103800428607,115601.0,131906.0,10762.0
1680103800438607,115609.0,131868.0,10743.0
1680103800448607,115606.0,131816.0,10777.0
1680103800458607,115601.0,131783.0,10775.0
1680103800467608,115599.0,131829.0,10761.0
1680103800478608,115579.0,131810.0,10753.0
1680103800487608,115589.0,131812.0,10759.0
1680103800498607,115550.0,131818.0,10744.0
1680103800507608,115591.0,131804.0,10771.0
1680103800517608,115545.0,131775.0,10736.0
1680103800528607,115591.0,131827.0,10775.0
1680103800538607,115634.0,131834.0,10760.0
1680103800547608,115593.0,131835.0,10727.0
1680103800559608,115583.0,131826.0,10754.0
1680103800568608,115595.0,131827.0,10763.0
1680103800578608,115601.0,131837.0,10770.0
1680103800587608,115605.0,131838.0,10772.0
1680103800597608,115591.0,131834.0,10778.0
1680103800608608,115621.0,131844.0,10761.0
1680103800618608,115621.0,131814.0,10768.0
1680103800628608,115625.0,131874.0,10756.0
1680103800638608,115647.0,131884.0,10756.0
1680103800648608,115654.0,131890.0,10766.0
1680103800658608,115622.0,131912.0,10731.0
1680103800669608,115627.0,131963.0,10762.0
1680103800678608,115639.0,131873.0,10764.0
1680103800687608,115594.0,131900.0,10773.0
1680103800698608,115655.0,131893.0,10739.0
1680103800708608,115643.0,131893.0,10772.0
1680103800717608,115643.0,131938.0,10779.0
1680103800728608,115613.0,131867.0,10762.0
1680103800737608,115646.0,131922.0,10762.0
1680103800748607,115659.0,131915.0,10734.0
1680103800758607,115658.0,131903.0,10775.0
1680103800767608,115622.0,131866.0,10779.0
1680103800778607,115647.0,131939.0,10724.0
1680103800789607,115654.0,131925.0,10767.0
1680103800799607,115651.0,131946.0,10805.0
1680103800810607,115654.0,131929.0,10779.0
1680103800817607,115647.0,131890.0,10759.0
1680103800828608,115650.0,131967.0,10767.0
1680103800837608,115680.0,131947.0,10747.0
1680103800848608,115660.0,131898.0,10780.0
1680103800857608,115658.0,131941.0,10784.0
1680103800868608,115633.0,131949.0,10780.0
1680103800878608,115625.0,131937.0,10774.0
1680103800887608,115621.0,131955.0,10779.0
1680103800898608,115640.0,131941.0,10738.0
1680103800908608,115628.0,131879.0,10771.0
1680103800918608,115569.0,131847.0,10751.0
1680103800929607,115539.0,131795.0,10760.0
1680103800939607,115504.0,131722.0,10812.0
1680103800950607,115476.0,131694.0,10779.0
1680103800958607,115449.0,131631.0,10766.0
1680103800967607,115438.0,131648.0,10766.0
1680103800978607,115419.0,131636.0,10739.0
1680103800988607,115430.0,131630.0,10778.0
1680103800998607,115436.0,131635.0,10771.0
1680103801007608,115437.0,131678.0,10777.0
1680103801017608,115474.0,131721.0,10742.0
1680103801028607,115496.0,131736.0,10757.0
1680103801038607,115528.0,131731.0,10769.0
1680103801048607,115532.0,131799.0,10767.0
1680103801058607,115619.0,131829.0,10777.0
1680103801069607,115572.0,131855.0,10776.0
1680103801079607,115588.0,131870.0,10775.0
1680103801089607,115577.0,131924.0,10810.0
1680103801098607,115636.0,131929.0,10763.0
1680103801107607,115651.0,131931.0,10772.0
1680103801118607,115677.0,131976.0,10776.0
1680103801128607,115688.0,132046.0,10770.0
1680103801137607,115688.0,132023.0,10759.0
1680103801148607,115718.0,132041.0,10780.0
1680103801157607,115668.0,131997.0,10774.0
1680103801168607,115709.0,132068.0,10783.0
1680103801178607,115713.0,132044.0,10753.0
1680103801187608,115729.0,132038.0,10774.0
1680103801198608,115676.0,132037.0,10755.0
1680103801209607,115695.0,132059.0,10771.0
1680103801219607,115682.0,132018.0,10779.0
1680103801227607,115665.0,131982.0,10780.0
1680103801238607,115619.0,132024.0,10778.0
1680103801247607,115633.0,132001.0,10778.0
1680103801257607,115674.0,131979.0,10762.0
1680103801268607,115689.0,132000.0,10751.0
1680103801277607,115671.0,131991.0,10780.0
1680103801288607,115681.0,132011.0,10784.0
1680103801297607,115624.0,132022.0,10781.0
1680103801307607,115679.0,132021.0,10749.0
1680103801318607,115679.0,132064.0,10765.0
1680103801329607,115706.0,132099.0,10769.0
1680103801339607,115705.0,132035.0,10809.0
1680103801347607,115681.0,132082.0,10786.0
1680103801357607,115718.0,132061.0,10753.0
1680103801368608,115732.0,132069.0,10790.0
1680103801378608,115735.0,132094.0,10774.0
1680103801387608,115739.0,132097.0,10793.0
1680103801397608,115682.0,132119.0,10787.0
1680103801408608,115743.0,132092.0,10771.0
1680103801418608,115744.0,132105.0,10750.0
1680103801427608,115743.0,132102.0,10776.0
1680103801438608,115736.0,132113.0,10788.0
1680103801447608,115701.0,132113.0,10772.0
1680103801458608,115741.0,132116.0,10750.0
1680103801467608,115749.0,132097.0,10778.0
1680103801477608,115772.0,132116.0,10785.0
1680103801488608,115743.0,132110.0,10745.0
1680103801498607,115744.0,132115.0,10775.0
1680103801509607,115741.0,132139.0,10768.0
1680103801518607,115744.0,132108.0,10787.0
1680103801527608,115732.0,132088.0,10771.0
1680103801538607,115724.0,132101.0,10791.0
1680103801547608,115696.0,132085.0,10779.0
1680103801558607,115737.0,132084.0,10786.0
1680103801567608,115725.0,132079.0,10784.0
1680103801578607,115727.0,132113.0,10771.0
1680103801587607,115734.0,132079.0,10768.0
1680103801597607,115729.0,132104.0,10757.0
1680103801608607,115732.0,132101.0,10774.0
1680103801617607,115775.0,132104.0,10787.0
1680103801628607,115733.0,132096.0,10739.0
1680103801637607,115675.0,132111.0,10771.0
1680103801647607,115735.0,132073.0,10773.0
1680103801658607,115741.0,132040.0,10788.0
1680103801667607,115735.0,132114.0,10778.0
1680103801677607,115724.0,132094.0,10747.0
1680103801688607,115738.0,132100.0,10784.0
1680103801697607,115717.0,132029.0,10773.0
1680103801708607,115693.0,132059.0,10784.0
1680103801717607,115673.0,132004.0,10763.0
1680103801727608,115655.0,131949.0,10779.0
1680103801738608,115589.0,131908.0,10747.0
1680103801749607,115576.0,131897.0,10779.0
1680103801759607,115530.0,131794.0,10767.0
1680103801767607,115489.0,131733.0,10773.0
1680103801778607,115528.0,131750.0,10769.0
1680103801788607,115481.0,131714.0,10780.0
1680103801797607,115455.0,131682.0,10780.0
1680103801807607,115485.0,131682.0,10765.0
1680103801817607,115468.0,131767.0,10771.0
1680103801828607,115498.0,131757.0,10760.0
1680103801837607,115475.0,131778.0,10775.0
1680103801847607,115540.0,131811.0,10783.0
1680103801858607,115552.0,131836.0,10761.0
1680103801868607,115484.0,131891.0,10772.0
1680103801879607,115581.0,131878.0,10768.0
1680103801887607,115588.0,131905.0,10769.0
1680103801898607,115620.0,131879.0,10773.0
1680103801907608,115616.0,131938.0,10779.0
1680103801917608,115626.0,131959.0,10761.0
1680103801927608,115640.0,131951.0,10743.0
1680103801938608,115682.0,132008.0,10775.0
1680103801947608,115683.0,131958.0,10769.0
1680103801958608,115681.0,132017.0,10771.0
1680103801967608,115689.0,132029.0,10748.0
1680103801978608,115692.0,132082.0,10765.0
1680103801989607,115673.0,132026.0,10766.0
1680103801999607,115677.0,132011.0,10765.0
1680103802007607,115635.0,132005.0,10807.0
1680103802017607,115620.0,132019.0,10778.0
1680103802027607,115668.0,131974.0,10740.0
1680103802038607,115658.0,131964.0,10781.0
1680103802046607,115656.0,131979.0,10771.0
1680103802057607,115626.0,131975.0,10784.0
1680103802068607,115650.0,131955.0,10762.0
1680103802077607,115622.0,131968.0,10773.0
1680103802087608,115644.0,131976.0,10773.0
1680103802097608,115649.0,131981.0,10781.0
1680103802107608,115637.0,131987.0,10737.0
1680103802118608,115597.0,131997.0,10753.0
1680103802129608,115671.0,132018.0,10770.0
1680103802139608,115673.0,131987.0,10774.0
1680103802147607,115652.0,131980.0,10772.0
1680103802158607,115668.0,131995.0,10785.0
1680103802167607,115631.0,132040.0,10766.0
1680103802177607,115680.0,132028.0,10748.0
1680103802188607,115700.0,132035.0,10776.0
1680103802197607,115702.0,132040.0,10769.0
1680103802208607,115707.0,132026.0,10770.0
1680103802217607,115682.0,132070.0,10777.0
1680103802227607,115686.0,132073.0,10774.0
1680103802238607,115700.0,132070.0,10776.0
1680103802248607,115697.0,132074.0,10780.0
1680103802257607,115713.0,132071.0,10780.0
1680103802267608,115713.0,132000.0,10780.0
1680103802278607,115719.0,132071.0,10740.0
1680103802288607,115707.0,132092.0,10765.0
1680103802298607,115717.0,132066.0,10762.0
1680103802309607,115696.0,131994.0,10764.0
1680103802319607,115687.0,132025.0,10800.0
1680103802327607,115699.0,132053.0,10779.0
1680103802337607,115667.0,132026.0,10758.0
1680103802347607,115713.0,132017.0,10752.0
1680103802357607,115688.0,131980.0,10771.0
1680103802368607,115677.0,132018.0,10759.0
1680103802378607,115655.0,132013.0,10770.0
1680103802387607,115679.0,132001.0,10775.0
1680103802397607,115675.0,131973.0,10765.0
1680103802407607,115703.0,132003.0,10765.0
1680103802418607,115644.0,132001.0,10713.0
1680103802428607,115663.0,131993.0,10747.0
1680103802439607,115674.0,131978.0,10774.0
1680103802448608,115645.0,131971.0,10781.0
1680103802457608,115652.0,131969.0,10774.0
1680103802467608,115642.0,131986.0,10769.0
1680103802477608,115649.0,131980.0,10769.0
1680103802487608,115645.0,131962.0,10758.0
1680103802497608,115656.0,131978.0,10759.0
1680103802507608,115650.0,131959.0,10744.0
1680103802517608,115627.0,131936.0,10776.0
1680103802527608,115649.0,131933.0,10762.0
1680103802538607,115616.0,131907.0,10728.0
1680103802548607,115570.0,131860.0,10754.0
1680103802559607,115571.0,131825.0,10768.0
1680103802569607,115531.0,131790.0,10774.0
1680103802577607,115481.0,131665.0,10756.0
1680103802587607,115431.0,131707.0,10758.0
1680103802597607,115424.0,131632.0,10734.0
1680103802607607,115385.0,131619.0,10767.0
1680103802618607,115376.0,131528.0,10771.0
1680103802627608,115367.0,131509.0,10766.0
1680103802637608,115358.0,131580.0,10760.0
1680103802647608,115319.0,131578.0,10749.0
1680103802657608,115376.0,131605.0,10758.0
1680103802668608,115398.0,131612.0,10741.0
1680103802677608,115409.0,131574.0,10760.0
1680103802687608,115420.0,131662.0,10727.0
1680103802698608,115420.0,131689.0,10747.0
1680103802708608,115404.0,131705.0,10744.0
1680103802719607,115460.0,131684.0,10747.0
1680103802727607,115473.0,131657.0,10762.0
1680103802737607,115473.0,131729.0,10748.0
1680103802748607,115454.0,131722.0,10761.0
1680103802757607,115507.0,131754.0,10749.0
1680103802767607,115502.0,131765.0,10754.0
1680103802777607,115492.0,131728.0,10756.0
1680103802787607,115466.0,131770.0,10754.0
1680103802797607,115518.0,131740.0,10742.0
1680103802807608,115484.0,131734.0,10752.0
1680103802817608,115512.0,131765.0,10754.0
1680103802827607,115523.0,131737.0,10749.0
1680103802837607,115490.0,131736.0,10709.0
1680103802848607,115474.0,131719.0,10737.0
1680103802859607,115471.0,131696.0,10780.0
1680103802868607,115447.0,131661.0,10750.0
1680103802877607,115444.0,131648.0,10744.0
1680103802887607,115427.0,131669.0,10750.0
1680103802896608,115359.0,131623.0,10763.0
1680103802907607,115428.0,131634.0,10737.0
1680103802918607,115408.0,131614.0,10740.0
1680103802926607,115413.0,131538.0,10743.0
1680103802937607,115395.0,131600.0,10742.0
1680103802948607,115390.0,131590.0,10709.0
1680103802957607,115345.0,131566.0,10738.0
1680103802967607,115381.0,131580.0,10753.0
1680103802977607,115392.0,131551.0,10735.0
1680103802987608,115387.0,131541.0,10744.0
1680103802997608,115388.0,131585.0,10717.0
1680103803007608,115389.0,131584.0,10717.0
1680103803017608,115392.0,131586.0,10733.0
1680103803028607,115387.0,131634.0,10734.0
1680103803039607,115401.0,131595.0,10727.0
1680103803048607,115383.0,131587.0,10769.0
1680103803059607,115405.0,131607.0,10742.0
1680103803067607,115396.0,131555.0,10747.0
1680103803077607,115414.0,131621.0,10739.0
1680103803087607,115392.0,131635.0,10721.0
1680103803097607,115432.0,131619.0,10722.0
1680103803107607,115401.0,131626.0,10740.0
1680103803117607,115425.0,131630.0,10745.0
1680103803127607,115400.0,131636.0,10740.0
1680103803137607,115420.0,131620.0,10734.0
1680103803147607,115391.0,131581.0,10722.0
1680103803157607,115419.0,131607.0,10733.0
1680103803167608,115423.0,131628.0,10737.0
1680103803177608,115421.0,131594.0,10717.0
1680103803187608,115397.0,131626.0,10733.0
1680103803198608,115423.0,131681.0,10729.0
1680103803209607,115416.0,131599.0,10733.0
1680103803216607,115425.0,131601.0,10733.0
1680103803227607,115413.0,131593.0,10736.0
1680103803237607,115380.0,131639.0,10745.0
1680103803247607,115426.0,131626.0,10729.0
1680103803257607,115426.0,131646.0,10741.0
1680103803266607,115415.0,131581.0,10731.0
1680103803277607,115414.0,131662.0,10732.0
1680103803288607,115436.0,131643.0,10706.0
1680103803296607,115438.0,131646.0,10739.0
1680103803307607,115452.0,131663.0,10740.0
1680103803317607,115480.0,131657.0,10746.0
1680103803328607,115416.0,131673.0,10734.0
1680103803338607,115395.0,131631.0,10729.0
1680103803347608,115428.0,131634.0,10734.0
1680103803356608,115412.0,131596.0,10728.0
1680103803367608,115390.0,131572.0,10718.0
1680103803378608,115385.0,131509.0,10735.0
1680103803386608,115339.0,131524.0,10730.0
1680103803397607,115280.0,131426.0,10743.0
1680103803407607,115276.0,131411.0,10728.0
1680103803417607,115236.0,131393.0,10711.0
1680103803427607,115227.0,131362.0,10740.0
1680103803437607,115249.0,131343.0,10722.0
1680103803448607,115207.0,131338.0,10730.0
1680103803459607,115172.0,131340.0,10734.0
1680103803466607,115230.0,131345.0,10731.0
1680103803477607,115226.0,131355.0,10738.0
1680103803487607,115239.0,131419.0,10735.0
1680103803497607,115267.0,131416.0,10731.0
1680103803507607,115292.0,131463.0,10732.0
1680103803516607,115315.0,131499.0,10723.0
1680103803527608,115325.0,131520.0,10730.0
1680103803537608,115329.0,131559.0,10740.0
1680103803546608,115333.0,131581.0,10748.0
1680103803556608,115335.0,131588.0,10746.0
1680103803567608,115435.0,131610.0,10726.0
1680103803577607,115447.0,131681.0,10743.0
1680103803587607,115467.0,131642.0,10725.0
1680103803597607,115491.0,131720.0,10746.0
1680103803607607,115448.0,131754.0,10725.0
1680103803618607,115483.0,131803.0,10726.0
1680103803629607,115511.0,131771.0,10733.0
1680103803636607,115511.0,131722.0,10734.0
1680103803647607,115483.0,131760.0,10738.0
1680103803656607,115519.0,131747.0,10719.0
1680103803667607,115506.0,131742.0,10717.0
1680103803677607,115487.0,131713.0,10741.0
1680103803686607,115483.0,131677.0,10741.0
1680103803697607,115491.0,131738.0,10736.0
1680103803707608,115469.0,131752.0,10731.0
1680103803717608,115491.0,131711.0,10694.0
1680103803726608,115484.0,131700.0,10747.0
1680103803737608,115474.0,131653.0,10706.0
1680103803747608,115481.0,131704.0,10742.0
1680103803757608,115482.0,131727.0,10728.0
1680103803768607,115481.0,131685.0,10733.0
1680103803778607,115470.0,131721.0,10732.0
1680103803789607,115498.0,131737.0,10746.0
1680103803798607,115489.0,131732.0,10754.0
1680103803806607,115486.0,131730.0,10731.0
1680103803817607,115505.0,131729.0,10731.0
1680103803827607,115466.0,131760.0,10736.0
1680103803837607,115519.0,131770.0,10723.0
1680103803847607,115530.0,131773.0,10739.0
1680103803856607,115540.0,131794.0,10743.0
1680103803867607,115521.0,131816.0,10725.0
1680103803878607,115566.0,131835.0,10717.0
1680103803886608,115540.0,131837.0,10748.0
1680103803897607,115575.0,131851.0,10732.0
1680103803907607,115627.0,131854.0,10738.0
1680103803917607,115573.0,131868.0,10706.0
1680103803928607,115589.0,131880.0,10729.0
1680103803937607,115555.0,131877.0,10768.0
1680103803947607,115565.0,131863.0,10735.0
1680103803957607,115604.0,131874.0,10739.0
1680103803966607,115588.0,131846.0,10737.0
1680103803976607,115607.0,131894.0,10733.0
1680103803987607,115605.0,131891.0,10714.0
1680103803997607,115615.0,131884.0,10737.0
1680103804006607,115630.0,131921.0,10727.0
1680103804016607,115620.0,131882.0,10744.0
1680103804027607,115572.0,131915.0,10729.0
1680103804038607,115648.0,131970.0,10731.0
1680103804047607,115633.0,131907.0,10734.0
1680103804056607,115630.0,131869.0,10733.0
1680103804067608,115629.0,131902.0,10723.0
1680103804077608,115632.0,131907.0,10736.0
1680103804087608,115632.0,131920.0,10749.0
1680103804096608,115624.0,131902.0,10740.0
1680103804107608,115612.0,131930.0,10736.0
1680103804116608,115650.0,131914.0,10745.0
1680103804127608,115651.0,131929.0,10722.0
1680103804137608,115652.0,131907.0,10725.0
1680103804146608,115638.0,131928.0,10735.0
1680103804157608,115625.0,131878.0,10742.0
1680103804167608,115614.0,131885.0,10735.0
1680103804178608,115592.0,131936.0,10735.0
1680103804188608,115553.0,131796.0,10757.0
1680103804196607,115506.0,131738.0,10743.0
1680103804207607,115445.0,131712.0,10736.0
1680103804217607,115423.0,131654.0,10714.0
1680103804226607,115425.0,131613.0,10735.0
1680103804237607,115387.0,131593.0,10739.0
1680103804247608,115353.0,131594.0,10744.0
1680103804256608,115415.0,131586.0,10724.0
1680103804267608,115418.0,131592.0,10693.0
1680103804276608,115395.0,131618.0,10748.0
1680103804287608,115453.0,131675.0,10741.0
1680103804296608,115468.0,131700.0,10735.0
1680103804306608,115482.0,131676.0,10716.0
1680103804317608,115499.0,131739.0,10716.0
1680103804327607,115518.0,131806.0,10733.0
1680103804337607,115549.0,131730.0,10730.0
1680103804346608,115561.0,131804.0,10727.0
1680103804356608,115578.0,131822.0,10711.0
1680103804367607,115603.0,131852.0,10735.0
1680103804377607,115603.0,131870.0,10734.0
1680103804386608,115606.0,131890.0,10739.0
1680103804396608,115639.0,131903.0,10737.0
1680103804407607,115625.0,131927.0,10743.0
1680103804417607,115675.0,131926.0,10689.0
1680103804426608,115688.0,131969.0,10731.0
1680103804436608,115667.0,131929.0,10737.0
1680103804447608,115636.0,131907.0,10735.0
1680103804457608,115671.0,131909.0,10741.0
1680103804466608,115679.0,131937.0,10742.0
1680103804476608,115674.0,131948.0,10742.0
1680103804487608,115689.0,131927.0,10731.0
1680103804497608,115638.0,131932.0,10742.0
1680103804506608,115655.0,131918.0,10711.0
1680103804517608,115652.0,131921.0,10732.0
1680103804528607,115663.0,131935.0,10722.0
1680103804538607,115647.0,131935.0,10729.0
1680103804548607,115664.0,131905.0,10731.0
1680103804557608,115661.0,131910.0,10760.0
1680103804566608,115670.0,131881.0,10729.0
1680103804577607,115679.0,131957.0,10738.0
1680103804587607,115700.0,131957.0,10711.0
1680103804596608,115692.0,131962.0,10745.0
1680103804607608,115710.0,131979.0,10745.0
1680103804616608,115676.0,131973.0,10752.0
1680103804627608,115689.0,132004.0,10742.0
1680103804636608,115728.0,132010.0,10722.0
1680103804646608,115735.0,131963.0,10745.0
1680103804657608,115743.0,132013.0,10752.0
1680103804667608,115796.0,132034.0,10748.0
1680103804678608,115736.0,132077.0,10734.0
1680103804686607,115753.0,132051.0,10748.0
1680103804696607,115762.0,132050.0,10731.0
1680103804707607,115758.0,132005.0,10740.0
1680103804716607,115758.0,132053.0,10740.0
1680103804726607,115769.0,132053.0,10701.0
1680103804737607,115751.0,132039.0,10748.0
1680103804747607,115731.0,132055.0,10748.0
1680103804756607,115769.0,132029.0,10734.0
1680103804766607,115768.0,132059.0,10736.0
1680103804777607,115716.0,132048.0,10705.0
1680103804788608,115771.0,132034.0,10731.0
1680103804798608,115771.0,131994.0,10728.0
1680103804806608,115761.0,131998.0,10760.0
1680103804816608,115757.0,132031.0,10749.0
1680103804827607,115727.0,132054.0,10752.0
1680103804837607,115780.0,132056.0,10752.0
1680103804846608,115782.0,132050.0,10742.0
1680103804857607,115770.0,132021.0,10745.0
1680103804866608,115758.0,132063.0,10743.0
1680103804877607,115743.0,132092.0,10747.0
1680103804886608,115800.0,132077.0,10728.0
1680103804896608,115761.0,132085.0,10752.0
1680103804907607,115809.0,132053.0,10751.0
1680103804916607,115803.0,132121.0,10751.0
1680103804927607,115776.0,132141.0,10715.0
1680103804938607,115824.0,132090.0,10744.0
1680103804946607,115824.0,132061.0,10746.0
1680103804957607,115816.0,132057.0,10741.0
1680103804966608,115784.0,132122.0,10743.0
1680103804976608,115800.0,132082.0,10706.0
1680103804987608,115782.0,132043.0,10707.0
1680103804996608,115738.0,132006.0,10749.0
1680103805006608,115706.0,131973.0,10749.0
1680103805016608,115631.0,131870.0,10751.0
1680103805026608,115655.0,131893.0,10737.0
1680103805036608,115633.0,131843.0,10732.0
1680103805046608,115609.0,131762.0,10729.0
1680103805057608,115598.0,131793.0,10759.0
1680103805068607,115593.0,131756.0,10735.0
1680103805077607,115598.0,131825.0,10772.0
1680103805086608,115585.0,131813.0,10754.0
1680103805096608,115637.0,131819.0,10728.0
1680103805107607,115650.0,131880.0,10722.0
1680103805116608,115668.0,131891.0,10757.0
1680103805127607,115671.0,131931.0,10738.0
1680103805136608,115705.0,131871.0,10750.0
1680103805146608,115733.0,132006.0,10739.0
1680103805156608,115710.0,131986.0,10744.0
1680103805167608,115724.0,132032.0,10755.0
1680103805176608,115798.0,132052.0,10732.0
1680103805186608,115811.0,132004.0,10754.0
1680103805197608,115834.0,132105.0,10733.0
1680103805207608,115873.0,132134.0,10751.0
1680103805218608,115854.0,132106.0,10740.0
1680103805226607,115866.0,132169.0,10748.0
1680103805236607,115856.0,132179.0,10753.0
1680103805247607,115876.0,132174.0,10716.0
1680103805256607,115877.0,132154.0,10747.0
1680103805266607,115865.0,132155.0,10755.0
1680103805276607,115826.0,132147.0,10754.0
1680103805286607,115867.0,132136.0,10734.0
1680103805296607,115851.0,132130.0,10750.0
1680103805306607,115796.0,132068.0,10743.0
1680103805316607,115830.0,132083.0,10760.0
1680103805327608,115848.0,132104.0,10715.0
1680103805337608,115855.0,132097.0,10750.0
1680103805347608,115821.0,132112.0,10736.0
1680103805358608,115832.0,132082.0,10733.0
1680103805368608,115833.0,132074.0,10770.0
1680103805376608,115828.0,132090.0,10752.0
1680103805386608,115832.0,132107.0,10746.0
1680103805396608,115813.0,132091.0,10710.0
1680103805406607,115824.0,132097.0,10726.0
1680103805417607,115855.0,132082.0,10750.0
1680103805425607,115840.0,132128.0,10736.0
1680103805436607,115839.0,132119.0,10743.0
1680103805446607,115854.0,132109.0,10750.0
1680103805456607,115841.0,132115.0,10705.0
1680103805466607,115868.0,132081.0,10760.0
1680103805476607,115868.0,132050.0,10752.0
1680103805486607,115865.0,132124.0,10743.0
1680103805497607,115842.0,132136.0,10739.0
1680103805507608,115867.0,132164.0,10740.0
1680103805518607,115842.0,132123.0,10757.0
1680103805526607,115847.0,132100.0,10744.0
1680103805537607,115842.0,132103.0,10735.0
1680103805546607,115801.0,132124.0,10740.0
1680103805556607,115849.0,132093.0,10747.0
1680103805566607,115842.0,132077.0,10735.0
1680103805576607,115845.0,132053.0,10735.0
1680103805587607,115837.0,132096.0,10731.0
1680103805596607,115808.0,132072.0,10725.0
1680103805606607,115839.0,132044.0,10736.0
1680103805616607,115845.0,132089.0,10735.0
1680103805626607,115875.0,132082.0,10736.0
1680103805637607,115799.0,132081.0,10709.0
1680103805647607,115848.0,132045.0,10737.0
1680103805658607,115845.0,132089.0,10726.0
1680103805668607,115819.0,132063.0,10768.0
1680103805675607,115818.0,132087.0,10742.0
1680103805686608,115821.0,132083.0,10743.0
1680103805696608,115843.0,132087.0,10748.0
1680103805706608,115851.0,132097.0,10741.0
1680103805716608,115844.0,132081.0,10747.0
1680103805726608,115834.0,132092.0,10733.0
1680103805736608,115827.0,132131.0,10735.0
1680103805746608,115848.0,132105.0,10739.0
1680103805756608,115841.0,132100.0,10746.0
1680103805765608,115805.0,132091.0,10741.0
1680103805776608,115806.0,132125.0,10715.0
1680103805786608,115857.0,132110.0,10704.0
1680103805796608,115822.0,132113.0,10732.0
1680103805808608,115813.0,132079.0,10741.0
1680103805816608,115766.0,132035.0,10744.0
1680103805826608,115773.0,131985.0,10694.0
1680103805837607,115744.0,131936.0,10742.0
1680103805846608,115688.0,131851.0,10735.0
1680103805856608,115675.0,131885.0,10701.0
1680103805866608,115640.0,131796.0,10735.0
1680103805877607,115612.0,131774.0,10744.0
1680103805885607,115622.0,131759.0,10741.0
1680103805896607,115579.0,131776.0,10738.0
1680103805906607,115626.0,131766.0,10720.0
1680103805916607,115627.0,131768.0,10734.0
1680103805926607,115641.0,131767.0,10745.0
1680103805936607,115655.0,131838.0,10729.0
1680103805946607,115662.0,131856.0,10747.0
1680103805957607,115702.0,131870.0,10711.0
1680103805965607,115709.0,131845.0,10739.0
1680103805976607,115733.0,131949.0,10701.0
1680103805986607,115755.0,131985.0,10731.0
1680103805997607,115769.0,132014.0,10735.0
1680103806007607,115789.0,131972.0,10719.0
1680103806016607,115809.0,132022.0,10729.0
1680103806026607,115804.0,132007.0,10726.0
1680103806036607,115785.0,132056.0,10744.0
1680103806046608,115847.0,132068.0,10697.0
1680103806056608,115836.0,132074.0,10740.0
1680103806066608,115833.0,132078.0,10740.0
1680103806076608,115835.0,132087.0,10726.0
1680103806086608,115806.0,132079.0,10733.0
1680103806096608,115843.0,132073.0,10735.0
1680103806106608,115824.0,132034.0,10736.0
1680103806116608,115814.0,132039.0,10719.0
1680103806127607,115793.0,132019.0,10698.0
1680103806137607,115794.0,131999.0,10724.0
1680103806148607,115754.0,132000.0,10766.0
1680103806157607,115773.0,131994.0,10739.0
1680103806168607,115731.0,131978.0,10766.0
1680103806175607,115775.0,131969.0,10715.0
1680103806186607,115784.0,131919.0,10744.0
1680103806196607,115767.0,131916.0,10727.0
1680103806206607,115768.0,131982.0,10725.0
1680103806216607,115756.0,131985.0,10732.0
1680103806225608,115748.0,131983.0,10736.0
1680103806236608,115796.0,131990.0,10712.0
1680103806247608,115787.0,132006.0,10718.0
1680103806255607,115803.0,131999.0,10746.0
1680103806266607,115803.0,131975.0,10731.0
1680103806276607,115835.0,132034.0,10734.0
1680103806286607,115814.0,132040.0,10697.0
1680103806296607,115817.0,132050.0,10724.0
1680103806306607,115796.0,132069.0,10726.0
1680103806316607,115841.0,132029.0,10709.0
1680103806326607,115843.0,132024.0,10734.0
1680103806336607,115832.0,132088.0,10735.0
1680103806345607,115816.0,132055.0,10720.0
1680103806356607,115832.0,132061.0,10700.0
1680103806366607,115820.0,132040.0,10727.0
1680103806376607,115788.0,132002.0,10725.0
1680103806386607,115817.0,132042.0,10717.0
1680103806396607,115820.0,132033.0,10704.0
1680103806406608,115832.0,132032.0,10724.0
1680103806417608,115810.0,132008.0,10688.0
1680103806426608,115844.0,132016.0,10728.0
1680103806437608,115791.0,131946.0,10719.0
1680103806448608,115783.0,131998.0,10715.0
1680103806458608,115801.0,131998.0,10767.0
1680103806465608,115806.0,132012.0,10724.0
1680103806476607,115784.0,131999.0,10706.0
1680103806486607,115807.0,132002.0,10712.0
1680103806496607,115820.0,131958.0,10731.0
1680103806506607,115821.0,132025.0,10721.0
1680103806515607,115825.0,132046.0,10727.0
1680103806526607,115823.0,132039.0,10720.0
1680103806536607,115812.0,132048.0,10702.0
1680103806546607,115830.0,132038.0,10696.0
1680103806556607,115834.0,132052.0,10710.0
1680103806566607,115816.0,132012.0,10726.0
1680103806576607,115829.0,132048.0,10731.0
1680103806586608,115762.0,132024.0,10726.0
1680103806596608,115806.0,131998.0,10696.0
1680103806605608,115793.0,131995.0,10712.0
1680103806616608,115754.0,131945.0,10702.0
1680103806628608,115730.0,131890.0,10691.0
1680103806635608,115693.0,131786.0,10716.0
1680103806646608,115657.0,131790.0,10728.0
1680103806656607,115627.0,131723.0,10728.0
1680103806666607,115583.0,131720.0,10732.0
1680103806676607,115606.0,131718.0,10714.0
1680103806685608,115606.0,131654.0,10726.0
1680103806696607,115596.0,131719.0,10714.0
1680103806706607,115575.0,131735.0,10727.0
1680103806715608,115634.0,131775.0,10693.0
1680103806726607,115658.0,131787.0,10726.0
1680103806736607,115728.0,131817.0,10733.0
1680103806747607,115697.0,131895.0,10713.0
1680103806756607,115694.0,131877.0,10711.0
1680103806767608,115737.0,131904.0,10720.0
1680103806778607,115760.0,131933.0,10766.0
1680103806786607,115792.0,131988.0,10731.0
1680103806796607,115821.0,132033.0,10735.0
1680103806805607,115811.0,132057.0,10726.0
1680103806816607,115888.0,132109.0,10724.0
1680103806825607,115862.0,132142.0,10739.0
1680103806836607,115944.0,132167.0,10715.0
1680103806846607,115949.0,132159.0,10735.0
1680103806855607,115968.0,132240.0,10730.0
1680103806866607,115980.0,132245.0,10728.0
1680103806876607,115997.0,132280.0,10729.0
1680103806885607,115985.0,132242.0,10700.0
1680103806896607,115980.0,132271.0,10719.0
1680103806907607,115990.0,132313.0,10723.0
1680103806918607,115972.0,132268.0,10759.0
1680103806925607,115926.0,132274.0,10738.0
1680103806935607,115990.0,132245.0,10710.0
1680103806946608,115970.0,132207.0,10736.0
1680103806956608,115977.0,132250.0,10720.0
1680103806965608,115970.0,132260.0,10731.0
1680103806976608,115942.0,132238.0,10735.0
1680103806986608,115993.0,132254.0,10739.0
1680103806995608,115977.0,132245.0,10722.0
1680103807005608,116000.0,132265.0,10722.0
1680103807016608,116001.0,132252.0,10745.0
1680103807025608,116000.0,132290.0,10737.0
1680103807036608,116022.0,132270.0,10724.0
1680103807046608,116021.0,132332.0,10727.0
1680103807057608,116031.0,132409.0,10737.0
1680103807067608,116015.0,132324.0,10769.0
1680103807075607,115994.0,132347.0,10748.0
1680103807086607,116055.0,132340.0,10713.0
1680103807095607,116050.0,132336.0,10740.0
1680103807105607,116062.0,132375.0,10737.0
1680103807116607,116029.0,132394.0,10738.0
1680103807127608,116079.0,132369.0,10712.0
1680103807135608,116081.0,132388.0,10743.0
1680103807146608,116082.0,132356.0,10739.0
1680103807155608,116062.0,132386.0,10741.0
1680103807165608,116062.0,132360.0,10734.0
1680103807175608,116011.0,132367.0,10721.0
1680103807186607,116066.0,132325.0,10731.0
1680103807195608,116074.0,132367.0,10730.0
1680103807206607,116065.0,132364.0,10688.0
1680103807216607,116083.0,132384.0,10708.0
1680103807225607,116098.0,132394.0,10738.0
1680103807236607,116073.0,132380.0,10701.0
1680103807247607,116083.0,132385.0,10728.0
1680103807257607,116048.0,132383.0,10773.0
1680103807265607,116082.0,132356.0,10733.0
1680103807275607,116079.0,132383.0,10710.0
1680103807286607,116087.0,132389.0,10738.0
1680103807296607,116080.0,132349.0,10728.0
1680103807305608,116035.0,132388.0,10740.0
1680103807315608,116094.0,132370.0,10706.0
1680103807326608,116106.0,132374.0,10723.0
1680103807336608,116095.0,132387.0,10728.0
1680103807345608,116096.0,132371.0,10723.0
1680103807356608,116100.0,132398.0,10735.0
1680103807365608,116105.0,132399.0,10724.0
1680103807376608,116102.0,132406.0,10683.0
1680103807387607,116057.0,132404.0,10727.0
1680103807395607,116107.0,132389.0,10725.0
1680103807406607,116088.0,132324.0,10732.0
1680103807416607,116056.0,132372.0,10741.0
1680103807425607,116015.0,132355.0,10738.0
1680103807435607,116024.0,132263.0,10718.0
1680103807445607,116000.0,132230.0,10685.0
1680103807456607,115943.0,132172.0,10745.0
1680103807465607,115905.0,132120.0,10735.0
1680103807475607,115847.0,132103.0,10740.0
1680103807486608,115874.0,132082.0,10730.0
1680103807496608,115900.0,132074.0,10739.0
1680103807505608,115867.0,132086.0,10705.0
1680103807517608,115867.0,132085.0,10734.0
1680103807528608,115877.0,132103.0,10751.0
1680103807535608,115875.0,132103.0,10764.0
1680103807546608,115894.0,132168.0,10737.0
1680103807556608,115946.0,132160.0,10712.0
1680103807565608,115950.0,132147.0,10733.0
1680103807576608,115982.0,132190.0,10732.0
1680103807586608,115998.0,132247.0,10736.0
1680103807595608,116004.0,132252.0,10746.0
1680103807606608,116024.0,132270.0,10714.0
1680103807616608,116007.0,132275.0,10731.0
1680103807626608,116067.0,132335.0,10747.0
1680103807635608,116088.0,132291.0,10727.0
1680103807646608,116082.0,132398.0,10701.0
1680103807657607,116073.0,132382.0,10732.0
1680103807666608,116134.0,132411.0,10739.0
1680103807675608,116123.0,132398.0,10740.0
1680103807685608,116130.0,132373.0,10730.0
1680103807696608,116123.0,132362.0,10734.0
1680103807706608,116095.0,132418.0,10739.0
1680103807715608,116125.0,132390.0,10786.0
1680103807725608,116118.0,132405.0,10742.0
1680103807736608,116109.0,132392.0,10680.0
1680103807747608,116106.0,132372.0,10718.0
1680103807756608,116109.0,132367.0,10717.0
1680103807767608,116104.0,132365.0,10761.0
1680103807775607,116057.0,132365.0,10760.0
1680103807786607,116070.0,132358.0,10738.0
1680103807796607,116109.0,132341.0,10726.0
1680103807805607,116103.0,132297.0,10737.0
1680103807815607,116105.0,132354.0,10743.0
1680103807825607,116068.0,132379.0,10733.0
1680103807836607,116136.0,132375.0,10708.0
1680103807846608,116140.0,132402.0,10708.0
1680103807855608,116099.0,132380.0,10735.0
1680103807866608,116143.0,132394.0,10731.0
1680103807875608,116162.0,132397.0,10738.0
1680103807885608,116160.0,132402.0,10743.0
1680103807896608,116130.0,132446.0,10718.0
1680103807906607,116185.0,132484.0,10732.0
1680103807917607,116181.0,132413.0,10725.0
1680103807925607,116199.0,132458.0,10729.0
1680103807935607,116194.0,132460.0,10731.0
1680103807946607,116178.0,132450.0,10726.0
1680103807956607,116200.0,132459.0,10723.0
1680103807965607,116191.0,132457.0,10732.0
1680103807975607,116192.0,132453.0,10734.0
1680103807986607,116186.0,132451.0,10732.0
1680103807995607,116173.0,132451.0,10739.0
1680103808005607,116193.0,132443.0,10691.0
1680103808015607,116183.0,132414.0,10713.0
1680103808025608,116189.0,132355.0,10740.0
1680103808036608,116179.0,132396.0,10728.0
1680103808045608,116203.0,132399.0,10724.0
1680103808056608,116155.0,132394.0,10686.0
1680103808067608,116103.0,132376.0,10719.0
1680103808076608,116147.0,132354.0,10720.0
1680103808085608,116086.0,132367.0,10732.0
1680103808095608,116144.0,132333.0,10705.0
1680103808105608,116133.0,132303.0,10715.0
1680103808115608,116137.0,132361.0,10719.0
1680103808126608,116137.0,132347.0,10688.0
1680103808135608,116129.0,132349.0,10706.0
1680103808145608,116123.0,132323.0,10726.0
1680103808155608,116133.0,132348.0,10712.0
1680103808166607,116121.0,132339.0,10713.0
1680103808175608,116113.0,132336.0,10719.0
1680103808185608,116135.0,132301.0,10720.0
1680103808195608,116160.0,132356.0,10729.0
1680103808206608,116119.0,132317.0,10682.0
1680103808215608,116072.0,132306.0,10712.0
1680103808226608,116080.0,132337.0,10716.0
1680103808237608,116092.0,132269.0,10715.0
1680103808246608,116053.0,132197.0,10711.0
1680103808255608,116028.0,132211.0,10747.0
1680103808265608,116009.0,132150.0,10715.0
1680103808276608,115976.0,132101.0,10719.0
1680103808285608,115922.0,132043.0,10720.0
1680103808296608,115895.0,132000.0,10722.0
1680103808305608,115839.0,131954.0,10721.0
1680103808315608,115857.0,131916.0,10679.0
1680103808325608,115826.0,131908.0,10709.0
1680103808336608,115806.0,131912.0,10685.0
1680103808345608,115832.0,131913.0,10710.0
1680103808355608,115836.0,131857.0,10712.0
1680103808365608,115860.0,131914.0,10711.0
1680103808376608,115818.0,131955.0,10693.0
1680103808387608,115897.0,132018.0,10705.0
1680103808397608,115907.0,131959.0,10735.0
1680103808405608,115930.0,131970.0,10706.0
1680103808416607,115947.0,132073.0,10703.0
1680103808424607,115951.0,132103.0,10696.0
1680103808435607,116002.0,132113.0,10714.0
1680103808445607,116002.0,132126.0,10710.0
1680103808455607,116021.0,132136.0,10716.0
1680103808465607,116000.0,132167.0,10714.0
1680103808475607,116068.0,132197.0,10697.0
1680103808485607,116100.0,132220.0,10703.0
1680103808495607,116078.0,132235.0,10670.0
1680103808505607,116077.0,132238.0,10697.0
1680103808517607,116079.0,132267.0,10707.0
1680103808527607,116064.0,132207.0,10681.0
1680103808535607,116053.0,132167.0,10702.0
1680103808546607,116045.0,132200.0,10709.0
1680103808554607,116015.0,132148.0,10720.0
1680103808565608,116037.0,132142.0,10669.0
1680103808576608,116002.0,132136.0,10708.0
1680103808585608,116012.0,132094.0,10706.0
1680103808595608,116004.0,132076.0,10711.0
1680103808605608,115992.0,132114.0,10700.0
1680103808616608,115971.0,132089.0,10726.0
1680103808625608,115983.0,132051.0,10696.0
1680103808635608,115992.0,132072.0,10699.0
1680103808645608,116012.0,132092.0,10697.0
1680103808655608,115992.0,132092.0,10653.0
1680103808666607,115936.0,132095.0,10690.0
1680103808675608,116011.0,132143.0,10694.0
1680103808685608,116011.0,132112.0,10709.0
1680103808695608,116011.0,132056.0,10697.0
1680103808705608,116005.0,132117.0,10702.0
1680103808714608,115970.0,132099.0,10701.0
1680103808725607,116033.0,132109.0,10702.0
1680103808735607,116020.0,132060.0,10695.0
1680103808745608,116024.0,132146.0,10698.0
1680103808755608,116027.0,132088.0,10664.0
1680103808765608,116056.0,132120.0,10672.0
1680103808776608,116002.0,132169.0,10693.0
1680103808785608,116030.0,132116.0,10688.0
1680103808795608,116029.0,132100.0,10727.0
1680103808805608,116029.0,132112.0,10704.0
1680103808815608,116029.0,132078.0,10684.0
1680103808825608,116031.0,132134.0,10706.0
1680103808835608,115992.0,132136.0,10700.0
1680103808845608,116044.0,132120.0,10678.0
1680103808855608,116037.0,132103.0,10703.0
1680103808865608,116000.0,132128.0,10694.0
1680103808875608,116021.0,132118.0,10690.0
1680103808885608,116043.0,132132.0,10695.0
1680103808896608,116031.0,132161.0,10696.0
1680103808906607,116018.0,132105.0,10682.0
1680103808917607,116016.0,132092.0,10688.0
1680103808925608,115997.0,132103.0,10727.0
1680103808934608,116021.0,132095.0,10677.0
1680103808945608,116032.0,132099.0,10661.0
1680103808956607,116020.0,132089.0,10694.0
1680103808964607,116035.0,132135.0,10693.0
1680103808975607,115971.0,132114.0,10683.0
1680103808985607,115968.0,132110.0,10705.0
1680103808995607,116032.0,132141.0,10707.0
1680103809004607,116030.0,132091.0,10694.0
1680103809015607,116038.0,132052.0,10675.0
1680103809025607,116031.0,132136.0,10671.0
1680103809036607,116043.0,132118.0,10688.0
1680103809046607,116026.0,132103.0,10681.0
1680103809054607,116026.0,132093.0,10693.0
1680103809065607,115976.0,132075.0,10678.0
1680103809076607,115947.0,132037.0,10702.0
1680103809085607,115961.0,132004.0,10690.0
1680103809095607,115914.0,131922.0,10697.0
1680103809105608,115883.0,131915.0,10693.0
1680103809115608,115845.0,131854.0,10686.0
1680103809125608,115822.0,131817.0,10682.0
1680103809134608,115791.0,131796.0,10677.0
1680103809144608,115803.0,131779.0,10692.0
1680103809155608,115750.0,131736.0,10714.0
1680103809166607,115810.0,131783.0,10659.0
1680103809174607,115807.0,131748.0,10694.0
1680103809185607,115842.0,131843.0,10697.0
1680103809194607,115894.0,131887.0,10697.0
1680103809205607,115875.0,131903.0,10684.0
1680103809215607,115888.0,131931.0,10674.0
1680103809225607,115898.0,131981.0,10679.0
1680103809236607,115923.0,131973.0,10680.0
1680103809245607,115907.0,131965.0,10676.0
1680103809254607,115963.0,132013.0,10673.0
1680103809265607,115973.0,131999.0,10680.0
1680103809275607,116006.0,132084.0,10658.0
1680103809285608,115990.0,132102.0,10689.0
1680103809295608,116039.0,132101.0,10653.0
1680103809304608,116061.0,132114.0,10643.0
1680103809315608,116066.0,132111.0,10689.0
1680103809325608,116069.0,132142.0,10686.0
1680103809336608,116075.0,132108.0,10692.0
1680103809344607,116070.0,132072.0,10684.0
1680103809355607,116055.0,132144.0,10642.0
1680103809366607,116023.0,132125.0,10677.0
1680103809377607,116056.0,132104.0,10693.0
1680103809385607,116027.0,132096.0,10700.0
1680103809394607,116037.0,132090.0,10681.0
1680103809405607,116026.0,132089.0,10695.0
1680103809415607,115984.0,132089.0,10686.0
1680103809424607,116039.0,132067.0,10687.0
1680103809435607,116042.0,132039.0,10684.0
1680103809444607,116002.0,132091.0,10680.0
1680103809455607,116035.0,132102.0,10663.0
1680103809465608,116035.0,132093.0,10692.0
1680103809474608,116046.0,132058.0,10685.0
1680103809485608,116050.0,132116.0,10655.0
1680103809496608,116065.0,132151.0,10680.0
1680103809505608,116041.0,132175.0,10684.0
1680103809517608,116086.0,132134.0,10682.0
1680103809525608,116080.0,132127.0,10686.0
1680103809535608,116087.0,132162.0,10689.0
1680103809545608,116062.0,132191.0,10698.0
1680103809554608,116067.0,132188.0,10689.0
1680103809565608,116130.0,132180.0,10682.0
1680103809575608,116122.0,132162.0,10687.0
1680103809585608,116131.0,132215.0,10673.0
1680103809594608,116122.0,132211.0,10693.0
1680103809605608,116127.0,132238.0,10683.0
1680103809615608,116154.0,132205.0,10694.0
1680103809625608,116150.0,132218.0,10698.0
1680103809635608,116153.0,132208.0,10693.0
1680103809646608,116104.0,132239.0,10681.0
1680103809657608,116163.0,132229.0,10688.0
1680103809667608,116159.0,132241.0,10707.0
1680103809674608,116161.0,132216.0,10690.0
1680103809685608,116169.0,132258.0,10690.0
1680103809695608,116128.0,132246.0,10664.0
1680103809705608,116162.0,132264.0,10696.0
1680103809714608,116164.0,132251.0,10690.0
1680103809724608,116140.0,132271.0,10687.0
1680103809735607,116190.0,132251.0,10679.0
1680103809745607,116190.0,132246.0,10693.0
1680103809754608,116195.0,132279.0,10700.0
1680103809764608,116158.0,132275.0,10681.0
1680103809775607,116200.0,132256.0,10703.0
1680103809785607,116220.0,132310.0,10673.0
1680103809796607,116199.0,132348.0,10694.0
1680103809807607,116193.0,132298.0,10690.0
1680103809814607,116200.0,132286.0,10700.0
1680103809825608,116213.0,132325.0,10686.0
1680103809835608,116195.0,132335.0,10686.0
1680103809844608,116228.0,132315.0,10661.0
1680103809855608,116225.0,132320.0,10694.0
1680103809865608,116204.0,132270.0,10693.0
1680103809875608,116173.0,132293.0,10682.0
1680103809884608,116171.0,132253.0,10680.0
1680103809894608,116142.0,132213.0,10671.0
1680103809905608,116125.0,132183.0,10690.0
1680103809915608,116049.0,132087.0,10689.0
1680103809924608,116052.0,132084.0,10693.0
1680103809934608,116049.0,132043.0,10665.0
1680103809945608,115963.0,132029.0,10664.0
1680103809955608,115991.0,131993.0,10668.0
1680103809965608,115983.0,132003.0,10679.0
1680103809975607,115983.0,132025.0,10694.0
1680103809986607,115987.0,132006.0,10686.0
1680103809996607,116004.0,132016.0,10693.0
1680103810006608,116023.0,132045.0,10713.0
1680103810014608,116010.0,132094.0,10694.0
1680103810025607,116023.0,132108.0,10704.0
1680103810035607,116099.0,132125.0,10667.0
1680103810045607,116103.0,132146.0,10694.0
1680103810055607,116123.0,132165.0,10699.0
1680103810064607,116140.0,132198.0,10687.0
1680103810075607,116158.0,132220.0,10700.0
1680103810085607,116127.0,132257.0,10698.0
1680103810094607,116193.0,132233.0,10686.0
1680103810104607,116148.0,132286.0,10691.0
1680103810115607,116204.0,132285.0,10665.0
1680103810125607,116235.0,132296.0,10700.0
1680103810134607,116231.0,132324.0,10694.0
1680103810144607,116248.0,132333.0,10661.0
1680103810155607,116207.0,132338.0,10682.0
1680103810166607,116246.0,132347.0,10684.0
1680103810176607,116232.0,132302.0,10681.0
1680103810184608,116218.0,132300.0,10691.0
1680103810195608,116191.0,132298.0,10695.0
1680103810205608,116183.0,132270.0,10690.0
1680103810214608,116187.0,132253.0,10699.0
1680103810224608,116209.0,132254.0,10685.0
1680103810235607,116199.0,132214.0,10699.0
1680103810245607,116200.0,132252.0,10670.0
1680103810254608,116203.0,132180.0,10695.0
1680103810265607,116205.0,132244.0,10694.0
1680103810276607,116203.0,132272.0,10686.0
1680103810287607,116162.0,132259.0,10727.0
1680103810296607,116220.0,132254.0,10684.0
1680103810304607,116235.0,132236.0,10692.0
1680103810315607,116213.0,132296.0,10680.0
1680103810324607,116221.0,132284.0,10698.0
1680103810335607,116204.0,132291.0,10687.0
1680103810345607,116245.0,132299.0,10696.0
1680103810354607,116240.0,132253.0,10693.0
1680103810365608,116250.0,132275.0,10701.0
1680103810375608,116253.0,132324.0,10684.0
1680103810384608,116253.0,132314.0,10692.0
1680103810394608,116246.0,132314.0,10688.0
1680103810405608,116259.0,132317.0,10671.0
1680103810415608,116265.0,132305.0,10692.0
1680103810424608,116271.0,132248.0,10689.0
1680103810435608,116264.0,132337.0,10693.0
1680103810444608,116301.0,132324.0,10698.0
1680103810455608,116268.0,132328.0,10637.0
1680103810465608,116249.0,132320.0,10676.0
1680103810476607,116259.0,132304.0,10688.0
1680103810485607,116241.0,132297.0,10702.0
1680103810494608,116225.0,132322.0,10681.0
1680103810504608,116259.0,132279.0,10661.0
1680103810514608,116244.0,132302.0,10695.0
1680103810524608,116230.0,132297.0,10694.0
1680103810535607,116227.0,132303.0,10688.0
1680103810545608,116204.0,132292.0,10688.0
1680103810554608,116235.0,132290.0,10678.0
1680103810565608,116246.0,132303.0,10703.0
1680103810575608,116275.0,132308.0,10699.0
1680103810586608,116233.0,132252.0,10682.0
1680103810594607,116248.0,132293.0,10681.0
1680103810604607,116239.0,132307.0,10683.0
1680103810615607,116255.0,132278.0,10664.0
1680103810625607,116240.0,132295.0,10689.0
1680103810634607,116266.0,132283.0,10689.0
1680103810644607,116238.0,132283.0,10683.0
1680103810655607,116199.0,132270.0,10692.0
1680103810665607,116251.0,132251.0,10676.0
1680103810674607,116195.0,132211.0,10690.0
1680103810684607,116221.0,132257.0,10690.0
1680103810694607,116234.0,132219.0,10690.0
1680103810705607,116154.0,132185.0,10644.0
1680103810714607,116136.0,132126.0,10670.0
1680103810725608,116098.0,132104.0,10684.0
1680103810736608,116063.0,132043.0,10682.0
1680103810746608,116048.0,132008.0,10679.0
1680103810756608,115987.0,131973.0,10721.0
1680103810764608,115973.0,131959.0,10694.0
1680103810774608,116017.0,131949.0,10665.0
1680103810785607,116011.0,131951.0,10648.0
1680103810795607,116010.0,131953.0,10686.0
1680103810804607,116023.0,131989.0,10697.0
1680103810814607,116026.0,132006.0,10695.0
1680103810824607,116085.0,132017.0,10660.0
1680103810835607,116080.0,132051.0,10690.0
1680103810844607,116080.0,132079.0,10682.0
1680103810854607,116122.0,132069.0,10689.0
1680103810865607,116141.0,132131.0,10675.0
1680103810874607,116188.0,132158.0,10670.0
1680103810885607,116158.0,132159.0,10654.0
1680103810896607,116133.0,132181.0,10674.0
1680103810906608,116213.0,132179.0,10677.0
1680103810917608,116219.0,132181.0,10711.0
1680103810924608,116224.0,132189.0,10675.0
1680103810934608,116238.0,132197.0,10679.0
1680103810944608,116217.0,132268.0,10674.0
1680103810955608,116245.0,132237.0,10650.0
1680103810963607,116179.0,132240.0,10693.0
1680103810974607,116235.0,132191.0,10649.0
1680103810985607,116208.0,132163.0,10682.0
1680103810994607,116193.0,132157.0,10676.0
1680103811004607,116187.0,132182.0,10679.0
1680103811014607,116195.0,132138.0,10661.0
1680103811024607,116137.0,132151.0,10646.0
1680103811035607,116167.0,132139.0,10662.0
1680103811046607,116162.0,132144.0,10674.0
1680103811054607,116159.0,132124.0,10712.0
1680103811064607,116101.0,132093.0,10682.0
1680103811074607,116160.0,132096.0,10670.0
1680103811085608,116145.0,132031.0,10679.0
1680103811094608,116136.0,132073.0,10672.0
1680103811104608,116121.0,132073.0,10669.0
1680103811114608,116107.0,132041.0,10664.0
1680103811125608,116115.0,132022.0,10651.0
1680103811134608,116103.0,132012.0,10676.0
1680103811144608,116103.0,131974.0,10670.0
1680103811155608,116106.0,132040.0,10668.0
1680103811164608,116103.0,132025.0,10676.0
1680103811174608,116116.0,132012.0,10672.0
1680103811185608,116133.0,132037.0,10628.0
1680103811194608,116130.0,132035.0,10666.0
1680103811205608,116117.0,132047.0,10643.0
1680103811215608,116112.0,132058.0,10652.0
1680103811226607,116108.0,132040.0,10705.0
1680103811236607,116089.0,132037.0,10630.0
1680103811244607,116114.0,132015.0,10671.0
1680103811254607,116105.0,132001.0,10665.0
1680103811264608,116107.0,132023.0,10670.0
1680103811275607,116078.0,131998.0,10673.0
1680103811284608,116072.0,131997.0,10671.0
1680103811295607,116062.0,132011.0,10669.0
1680103811305607,116102.0,131974.0,10644.0
1680103811314607,116047.0,131951.0,10666.0
1680103811324607,116039.0,131969.0,10674.0
1680103811335607,116066.0,131956.0,10656.0
1680103811344607,116088.0,131912.0,10663.0
1680103811354607,116110.0,131971.0,10646.0
1680103811364607,116073.0,131960.0,10632.0
1680103811375607,116042.0,131978.0,10651.0
1680103811386607,116087.0,132001.0,10656.0
1680103811396607,116089.0,131957.0,10684.0
1680103811404607,116074.0,131978.0,10672.0
1680103811415607,116054.0,131968.0,10670.0
1680103811424607,116085.0,131960.0,10664.0
1680103811434607,116087.0,131926.0,10669.0
1680103811444608,116070.0,131970.0,10662.0
1680103811454608,116042.0,131957.0,10643.0
1680103811464608,116077.0,131965.0,10660.0
1680103811474608,116067.0,131916.0,10663.0
1680103811485607,116048.0,131948.0,10662.0
1680103811494608,116082.0,131912.0,10668.0
1680103811504608,116016.0,131876.0,10633.0
1680103811514608,115980.0,131830.0,10652.0
1680103811524608,115946.0,131761.0,10649.0
1680103811535607,115923.0,131714.0,10665.0
1680103811544608,115879.0,131602.0,10652.0
1680103811554607,115856.0,131669.0,10656.0
1680103811564607,115839.0,131652.0,10660.0
1680103811574607,115830.0,131647.0,10629.0
1680103811585607,115823.0,131615.0,10658.0
1680103811593607,115829.0,131601.0,10657.0
1680103811604607,115807.0,131646.0,10655.0
1680103811614607,115853.0,131639.0,10631.0
1680103811624608,115883.0,131653.0,10651.0
1680103811634608,115874.0,131645.0,10641.0
1680103811644608,115852.0,131665.0,10639.0
1680103811654608,115905.0,131729.0,10639.0
1680103811665608,115972.0,131737.0,10632.0
1680103811674608,115933.0,131747.0,10658.0
1680103811684608,115940.0,131755.0,10635.0
1680103811695608,115924.0,131808.0,10642.0
1680103811706607,115952.0,131803.0,10642.0
1680103811713607,115933.0,131790.0,10658.0
1680103811724607,115967.0,131796.0,10606.0
1680103811734607,115962.0,131798.0,10648.0
1680103811744607,115986.0,131749.0,10643.0
1680103811754607,115973.0,131810.0,10634.0
1680103811763607,115963.0,131771.0,10645.0
1680103811774607,115970.0,131765.0,10613.0
1680103811785607,115933.0,131735.0,10642.0
1680103811794607,115884.0,131707.0,10649.0
1680103811804608,115911.0,131700.0,10646.0
1680103811814608,115891.0,131693.0,10646.0
1680103811824608,115887.0,131662.0,10601.0
1680103811834608,115893.0,131663.0,10628.0
1680103811845608,115869.0,131635.0,10613.0
1680103811855608,115844.0,131617.0,10632.0
1680103811866608,115800.0,131627.0,10682.0
1680103811877607,115851.0,131601.0,10635.0
1680103811883607,115845.0,131562.0,10642.0
1680103811894607,115842.0,131618.0,10640.0
1680103811905607,115823.0,131620.0,10632.0
1680103811914607,115869.0,131623.0,10617.0
1680103811924607,115868.0,131644.0,10641.0
1680103811934607,115861.0,131597.0,10626.0
1680103811944607,115838.0,131644.0,10647.0
1680103811955607,115849.0,131646.0,10631.0
1680103811963607,115858.0,131626.0,10634.0
1680103811974607,115889.0,131625.0,10631.0
1680103811984608,115917.0,131653.0,10647.0
1680103811994608,115840.0,131656.0,10606.0
1680103812004608,115832.0,131656.0,10623.0
1680103812016608,115860.0,131704.0,10626.0
1680103812026608,115899.0,131645.0,10632.0
1680103812034608,115892.0,131610.0,10636.0
1680103812045607,115868.0,131666.0,10636.0
1680103812054607,115905.0,131684.0,10627.0
1680103812064607,115895.0,131638.0,10626.0
1680103812074607,115905.0,131684.0,10627.0
1680103812084607,115906.0,131679.0,10597.0
1680103812094607,115887.0,131663.0,10634.0
1680103812104607,115891.0,131659.0,10627.0
1680103812114607,115896.0,131664.0,10626.0
1680103812124607,115872.0,131660.0,10635.0
1680103812133607,115884.0,131650.0,10613.0
1680103812144607,115895.0,131625.0,10629.0
1680103812154607,115885.0,131645.0,10619.0
1680103812165608,115886.0,131639.0,10622.0
1680103812173607,115930.0,131636.0,10634.0
1680103812184607,115880.0,131638.0,10581.0
1680103812195607,115824.0,131646.0,10624.0
1680103812206607,115902.0,131621.0,10622.0
1680103812214607,115890.0,131578.0,10652.0
1680103812223607,115890.0,131605.0,10622.0
1680103812234607,115867.0,131659.0,10628.0
1680103812244607,115880.0,131636.0,10599.0
1680103812254607,115872.0,131641.0,10621.0
1680103812263607,115825.0,131596.0,10635.0
1680103812274607,115823.0,131581.0,10609.0
1680103812284607,115833.0,131542.0,10635.0
1680103812294607,115807.0,131488.0,10636.0
1680103812304607,115770.0,131442.0,10642.0
1680103812314607,115711.0,131440.0,10624.0
1680103812325607,115724.0,131448.0,10625.0
1680103812335607,115713.0,131349.0,10627.0
1680103812343608,115715.0,131347.0,10629.0
1680103812354607,115704.0,131401.0,10639.0
1680103812364607,115721.0,131410.0,10626.0
1680103812374607,115742.0,131437.0,10629.0
1680103812384607,115755.0,131441.0,10605.0
1680103812394607,115779.0,131483.0,10637.0
1680103812404607,115806.0,131525.0,10617.0
1680103812414607,115831.0,131494.0,10632.0
1680103812424607,115844.0,131595.0,10621.0
1680103812433607,115853.0,131594.0,10642.0
1680103812444607,115896.0,131606.0,10640.0
1680103812454607,115930.0,131682.0,10623.0
1680103812464607,115950.0,131723.0,10625.0
1680103812475607,115963.0,131756.0,10629.0
1680103812485607,115991.0,131762.0,10634.0
1680103812496607,116014.0,131781.0,10631.0
1680103812505607,116016.0,131770.0,10670.0
1680103812513607,116008.0,131840.0,10636.0
1680103812524608,116026.0,131847.0,10632.0
1680103812534608,116046.0,131829.0,10607.0
1680103812544608,116051.0,131827.0,10614.0
1680103812553608,116043.0,131844.0,10639.0
1680103812564607,116051.0,131828.0,10603.0
1680103812574607,116028.0,131831.0,10641.0
1680103812584607,116039.0,131773.0,10640.0
1680103812594607,116035.0,131829.0,10632.0
1680103812603608,116032.0,131798.0,10640.0
1680103812614607,116033.0,131776.0,10610.0
1680103812624607,116047.0,131811.0,10651.0
1680103812634607,116075.0,131816.0,10642.0
1680103812645607,116028.0,131826.0,10640.0
1680103812655607,115986.0,131808.0,10639.0
1680103812666607,116048.0,131802.0,10628.0
1680103812674607,116038.0,131781.0,10666.0
1680103812683607,116048.0,131824.0,10634.0
1680103812694607,116058.0,131860.0,10610.0
1680103812704608,116062.0,131851.0,10647.0
1680103812713608,116068.0,131820.0,10648.0
1680103812724608,116088.0,131879.0,10650.0
1680103812733608,116050.0,131876.0,10647.0
1680103812744608,116104.0,131874.0,10626.0
1680103812754608,116107.0,131856.0,10652.0
1680103812763608,116084.0,131862.0,10643.0
1680103812774608,116115.0,131903.0,10601.0
1680103812785607,116104.0,131925.0,10637.0
1680103812796607,116124.0,131928.0,10647.0
1680103812804607,116106.0,131897.0,10658.0
1680103812813607,116113.0,131880.0,10649.0
1680103812824607,116124.0,131913.0,10647.0
1680103812834607,116067.0,131912.0,10651.0
1680103812843607,116137.0,131891.0,10642.0
1680103812854607,116133.0,131844.0,10641.0
1680103812864607,116121.0,131907.0,10641.0
1680103812874607,116119.0,131900.0,10642.0
1680103812883608,116074.0,131891.0,10644.0
1680103812894608,116142.0,131879.0,10617.0
1680103812903608,116126.0,131883.0,10631.0
1680103812914608,116127.0,131892.0,10610.0
1680103812924608,116123.0,131888.0,10648.0
1680103812933608,116126.0,131871.0,10646.0
1680103812944608,116134.0,131918.0,10600.0
1680103812955608,116137.0,131908.0,10628.0
1680103812964608,116112.0,131935.0,10633.0
1680103812975607,116127.0,131900.0,10639.0
1680103812985607,116154.0,131907.0,10637.0
1680103812996607,116143.0,131914.0,10672.0
1680103813004607,116107.0,131916.0,10640.0
1680103813013607,116142.0,131913.0,10612.0
1680103813024607,116126.0,131874.0,10647.0
1680103813034607,116114.0,131858.0,10641.0
1680103813044607,116073.0,131804.0,10636.0
1680103813054607,116064.0,131757.0,10629.0
1680103813064608,116041.0,131719.0,10639.0
1680103813074608,115998.0,131658.0,10645.0
1680103813084608,115957.0,131634.0,10629.0
1680103813093608,115943.0,131617.0,10641.0
1680103813104608,115942.0,131590.0,10610.0
1680103813114608,115938.0,131539.0,10640.0
1680103813124608,115926.0,131586.0,10647.0
1680103813135608,115964.0,131655.0,10635.0
1680103813144608,115955.0,131574.0,10670.0
1680103813153608,115955.0,131646.0,10645.0
1680103813164608,115982.0,131651.0,10591.0
1680103813173608,115996.0,131685.0,10644.0
1680103813183608,116024.0,131675.0,10635.0
1680103813194608,116007.0,131740.0,10654.0
1680103813203608,116054.0,131739.0,10627.0
1680103813213608,116052.0,131756.0,10599.0
1680103813224608,116107.0,131787.0,10634.0
1680103813234608,116145.0,131831.0,10641.0
1680103813244608,116113.0,131870.0,10622.0
1680103813254608,116149.0,131901.0,10634.0
1680103813265607,116165.0,131867.0,10642.0
1680103813273607,116170.0,131886.0,10639.0
1680103813284607,116173.0,131903.0,10651.0
1680103813294607,116137.0,131896.0,10641.0
1680103813303607,116169.0,131893.0,10602.0
1680103813314607,116177.0,131900.0,10637.0
1680103813323607,116156.0,131859.0,10650.0
1680103813334607,116129.0,131875.0,10649.0
1680103813344607,116168.0,131846.0,10620.0
1680103813353607,116148.0,131819.0,10639.0
1680103813364607,116157.0,131808.0,10633.0
1680103813373607,116141.0,131814.0,10636.0
1680103813383607,116145.0,131762.0,10615.0
1680103813394607,116130.0,131792.0,10649.0
1680103813403607,116164.0,131797.0,10641.0
1680103813414607,116121.0,131784.0,10600.0
1680103813424608,116099.0,131809.0,10633.0
1680103813435608,116127.0,131777.0,10629.0
1680103813446607,116131.0,131788.0,10648.0
1680103813454607,116134.0,131713.0,10641.0
1680103813463607,116147.0,131817.0,10640.0
1680103813474607,116129.0,131806.0,10625.0
1680103813483607,116143.0,131808.0,10640.0
1680103813494607,116148.0,131796.0,10641.0
1680103813504607,116118.0,131830.0,10647.0
1680103813513607,116123.0,131820.0,10649.0
1680103813524607,116167.0,131837.0,10640.0
1680103813533607,116172.0,131749.0,10632.0
1680103813544607,116173.0,131812.0,10643.0
1680103813554607,116206.0,131849.0,10608.0
1680103813564607,116180.0,131865.0,10634.0
1680103813575607,116174.0,131789.0,10631.0
1680103813586607,116174.0,131802.0,10626.0
1680103813593607,116166.0,131769.0,10660.0
1680103813603608,116159.0,131771.0,10626.0
1680103813614607,116123.0,131813.0,10630.0
1680103813624607,116126.0,131802.0,10629.0
1680103813633607,116143.0,131782.0,10634.0
1680103813643607,116131.0,131773.0,10613.0
1680103813653607,116102.0,131739.0,10611.0
1680103813664607,116132.0,131700.0,10637.0
1680103813673607,116128.0,131745.0,10620.0
1680103813683607,116120.0,131693.0,10604.0
1680103813694607,116094.0,131714.0,10611.0
1680103813705607,116103.0,131764.0,10629.0
1680103813715607,116099.0,131697.0,10657.0
1680103813723607,116077.0,131699.0,10636.0
1680103813733607,116125.0,131711.0,10614.0
1680103813744607,116109.0,131713.0,10636.0
1680103813754607,116117.0,131710.0,10631.0
1680103813763607,116084.0,131742.0,10633.0
1680103813774607,116123.0,131707.0,10597.0
1680103813784608,116123.0,131710.0,10633.0
1680103813794608,116102.0,131675.0,10624.0
1680103813803608,116042.0,131649.0,10633.0
1680103813813608,116077.0,131630.0,10642.0
1680103813823608,116087.0,131608.0,10634.0
1680103813834607,115994.0,131564.0,10573.0
1680103813843608,115937.0,131510.0,10626.0
1680103813853608,115952.0,131435.0,10592.0
1680103813864607,115907.0,131420.0,10635.0
1680103813873607,115893.0,131378.0,10632.0
1680103813883607,115849.0,131388.0,10621.0
1680103813894607,115890.0,131345.0,10583.0
1680103813903607,115908.0,131378.0,10631.0
1680103813914607,115910.0,131365.0,10624.0
1680103813923607,115904.0,131412.0,10626.0
1680103813933607,115929.0,131433.0,10629.0
1680103813944607,115959.0,131450.0,10588.0
1680103813953607,115968.0,131399.0,10625.0
1680103813963608,115991.0,131498.0,10621.0
1680103813974608,116047.0,131513.0,10630.0
1680103813984608,116012.0,131532.0,10622.0
1680103813994608,116022.0,131555.0,10617.0
1680103814004608,116017.0,131582.0,10618.0
1680103814015607,116055.0,131565.0,10621.0
1680103814023607,116068.0,131588.0,10626.0
1680103814034607,116075.0,131585.0,10622.0
1680103814043607,116039.0,131606.0,10621.0
1680103814053607,116081.0,131593.0,10601.0
1680103814063607,116080.0,131566.0,10624.0
1680103814073607,116069.0,131571.0,10618.0
1680103814084607,116062.0,131590.0,10624.0
1680103814093607,116072.0,131548.0,10617.0
1680103814103607,116055.0,131469.0,10631.0
1680103814114607,116053.0,131472.0,10626.0
1680103814123607,115983.0,131519.0,10618.0
1680103814133607,116031.0,131456.0,10575.0
1680103814143608,116013.0,131508.0,10621.0
1680103814154608,116010.0,131516.0,10614.0
1680103814165608,116010.0,131447.0,10613.0
1680103814174608,116012.0,131482.0,10612.0
1680103814185608,115964.0,131457.0,10653.0
1680103814193607,116005.0,131468.0,10615.0
1680103814203607,116017.0,131454.0,10580.0
1680103814213607,115976.0,131440.0,10632.0
1680103814223607,116002.0,131472.0,10610.0
1680103814233607,115975.0,131448.0,10620.0
1680103814244607,116001.0,131434.0,10614.0
1680103814253607,116008.0,131386.0,10617.0
1680103814263607,115993.0,131456.0,10618.0
1680103814273607,115997.0,131431.0,10594.0
1680103814283607,115997.0,131407.0,10583.0
1680103814294607,115994.0,131446.0,10582.0
1680103814303607,115991.0,131382.0,10606.0
1680103814313607,115975.0,131423.0,10585.0
1680103814324608,115975.0,131422.0,10607.0
1680103814335608,115945.0,131431.0,10606.0
1680103814342608,115926.0,131378.0,10602.0
1680103814353608,115964.0,131371.0,10596.0
1680103814364607,115943.0,131337.0,10608.0
1680103814373607,115947.0,131344.0,10595.0
1680103814383607,115928.0,131338.0,10597.0
1680103814393607,115922.0,131312.0,10577.0
1680103814403607,115921.0,131314.0,10607.0
1680103814414607,115906.0,131278.0,10610.0
1680103814422607,115895.0,131275.0,10608.0
1680103814433607,115847.0,131286.0,10604.0
1680103814444607,115885.0,131252.0,10600.0
1680103814453607,115838.0,131212.0,10597.0
1680103814463607,115872.0,131251.0,10602.0
1680103814473607,115883.0,131231.0,10603.0
1680103814484607,115893.0,131301.0,10593.0
1680103814495607,115879.0,131238.0,10592.0
1680103814504608,115883.0,131183.0,10601.0
1680103814513608,115868.0,131270.0,10633.0
1680103814523608,115836.0,131243.0,10607.0
1680103814533608,115881.0,131241.0,10578.0
1680103814544608,115875.0,131246.0,10596.0
1680103814553608,115885.0,131258.0,10603.0
1680103814563608,115870.0,131251.0,10583.0
1680103814573608,115833.0,131216.0,10593.0
1680103814583608,115865.0,131209.0,10570.0
1680103814593608,115849.0,131187.0,10597.0
1680103814603608,115777.0,131126.0,10588.0
1680103814613608,115792.0,131113.0,10608.0
1680103814623607,115769.0,131079.0,10572.0
1680103814634607,115746.0,131040.0,10565.0
1680103814644607,115718.0,130994.0,10591.0
1680103814655607,115693.0,130957.0,10582.0
1680103814666607,115670.0,130916.0,10614.0
1680103814672607,115664.0,130951.0,10600.0
1680103814683608,115660.0,130938.0,10585.0
1680103814693608,115652.0,130929.0,10585.0
1680103814703608,115663.0,130945.0,10576.0
1680103814713608,115697.0,130969.0,10586.0
1680103814723608,115696.0,130961.0,10589.0
1680103814733608,115712.0,131033.0,10600.0
1680103814743608,115740.0,131023.0,10595.0
1680103814754608,115713.0,131058.0,10600.0
1680103814763608,115777.0,131083.0,10576.0
1680103814773608,115776.0,131026.0,10590.0
1680103814783608,115801.0,131124.0,10580.0
1680103814794608,115817.0,131153.0,10578.0
1680103814804607,115838.0,131205.0,10583.0
1680103814815607,115850.0,131206.0,10605.0
1680103814823607,115868.0,131155.0,10593.0
1680103814834607,115877.0,131240.0,10589.0
1680103814843607,115874.0,131232.0,10568.0
1680103814853607,115898.0,131231.0,10590.0
1680103814863608,115869.0,131228.0,10584.0
1680103814873607,115855.0,131239.0,10596.0
1680103814883607,115841.0,131243.0,10590.0
1680103814893607,115826.0,131214.0,10578.0
1680103814903607,115858.0,131122.0,10598.0
1680103814913607,115846.0,131174.0,10580.0
1680103814922608,115884.0,131169.0,10592.0
1680103814934608,115816.0,131164.0,10556.0
1680103814944608,115852.0,131174.0,10593.0
1680103814955608,115850.0,131152.0,10588.0
1680103814965608,115841.0,131119.0,10602.0
1680103814972607,115835.0,131171.0,10590.0
1680103814983607,115804.0,131178.0,10595.0
1680103814993607,115817.0,131187.0,10590.0
1680103815003607,115879.0,131190.0,10572.0
1680103815013607,115880.0,131164.0,10586.0
1680103815023607,115883.0,131219.0,10577.0
1680103815033607,115879.0,131238.0,10553.0
1680103815044608,115895.0,131216.0,10595.0
1680103815052608,115884.0,131174.0,10589.0
1680103815063608,115903.0,131211.0,10595.0
1680103815073608,115902.0,131155.0,10582.0
1680103815083608,115902.0,131228.0,10590.0
1680103815093608,115966.0,131222.0,10586.0
1680103815104607,115903.0,131273.0,10580.0
1680103815114607,115898.0,131237.0,10579.0
1680103815125607,115902.0,131233.0,10582.0
1680103815133607,115892.0,131187.0,10622.0
1680103815142607,115868.0,131233.0,10603.0
1680103815153607,115911.0,131226.0,10561.0
1680103815163607,115888.0,131198.0,10589.0
1680103815172607,115893.0,131214.0,10592.0
1680103815183607,115887.0,131214.0,10589.0
1680103815192607,115871.0,131201.0,10598.0
1680103815203607,115888.0,131210.0,10582.0
1680103815213607,115909.0,131160.0,10581.0
1680103815223608,115907.0,131171.0,10588.0
1680103815234608,115896.0,131214.0,10583.0
1680103815245607,115912.0,131241.0,10582.0
1680103815254608,115885.0,131215.0,10631.0
1680103815263608,115921.0,131238.0,10597.0
1680103815273608,115915.0,131180.0,10581.0
1680103815283608,115922.0,131240.0,10583.0
1680103815294608,115911.0,131245.0,10558.0
1680103815302607,115920.0,131241.0,10589.0
1680103815313607,115923.0,131234.0,10598.0
1680103815323607,115902.0,131243.0,10594.0
1680103815333607,115935.0,131222.0,10581.0
1680103815343607,115923.0,131216.0,10570.0
1680103815353607,115864.0,131209.0,10582.0
1680103815363607,115865.0,131160.0,10593.0
1680103815373607,115846.0,131112.0,10594.0
1680103815382607,115808.0,131023.0,10578.0
1680103815393607,115784.0,131021.0,10589.0
1680103815403608,115773.0,130982.0,10591.0
1680103815413608,115735.0,130978.0,10549.0
1680103815422608,115772.0,130950.0,10605.0
1680103815434608,115730.0,130969.0,10562.0
1680103815445608,115741.0,130974.0,10582.0
1680103815455608,115720.0,130968.0,10639.0
1680103815462608,115758.0,130962.0,10592.0
1680103815473608,115754.0,131035.0,10599.0
1680103815483608,115816.0,131026.0,10594.0
1680103815493608,115825.0,131019.0,10589.0
1680103815503608,115843.0,131109.0,10587.0
1680103815512608,115860.0,131120.0,10564.0
1680103815523608,115891.0,131159.0,10588.0
1680103815533608,115917.0,131152.0,10590.0
1680103815543608,115929.0,131233.0,10588.0
1680103815552608,115950.0,131251.0,10557.0
1680103815563608,115967.0,131273.0,10591.0
1680103815573608,115988.0,131271.0,10589.0
1680103815583608,115974.0,131338.0,10602.0
1680103815592608,116015.0,131348.0,10580.0
1680103815603608,115991.0,131347.0,10581.0
1680103815613608,116026.0,131365.0,10572.0
1680103815624607,116027.0,131358.0,10585.0
1680103815634607,116019.0,131369.0,10582.0
1680103815645607,116000.0,131321.0,10599.0
1680103815653607,116014.0,131315.0,10590.0
1680103815663607,115997.0,131295.0,10589.0
1680103815672607,115982.0,131301.0,10582.0
1680103815683607,115983.0,131297.0,10592.0
1680103815692607,115954.0,131293.0,10594.0
1680103815703607,115956.0,131282.0,10597.0
1680103815713607,115996.0,131274.0,10586.0
1680103815722607,115952.0,131195.0,10596.0
1680103815733607,115997.0,131277.0,10587.0
1680103815742607,116048.0,131312.0,10599.0
1680103815753607,115974.0,131295.0,10574.0
1680103815764608,116009.0,131293.0,10567.0
1680103815774608,116022.0,131254.0,10588.0
1680103815785607,116010.0,131267.0,10613.0
1680103815793607,116012.0,131283.0,10592.0
1680103815802607,115996.0,131331.0,10605.0
1680103815812607,116034.0,131315.0,10576.0
1680103815823607,116012.0,131312.0,10587.0
1680103815833607,116038.0,131326.0,10595.0
1680103815842607,116031.0,131312.0,10585.0
1680103815853607,116021.0,131351.0,10603.0
1680103815863607,116043.0,131331.0,10563.0
1680103815873607,116010.0,131312.0,10590.0
1680103815882607,116044.0,131359.0,10593.0
1680103815892607,116043.0,131323.0,10596.0
1680103815903607,116050.0,131340.0,10590.0
1680103815913607,116020.0,131369.0,10578.0
1680103815923607,116055.0,131384.0,10586.0
1680103815934607,116037.0,131312.0,10585.0
1680103815942608,116013.0,131342.0,10590.0
1680103815953608,116052.0,131329.0,10564.0
1680103815963608,116035.0,131333.0,10582.0
1680103815972608,116038.0,131308.0,10588.0
1680103815983608,116027.0,131326.0,10597.0
1680103815992608,115997.0,131300.0,10595.0
1680103816003608,116028.0,131316.0,10581.0
1680103816013608,116042.0,131294.0,10601.0
1680103816022608,116044.0,131235.0,10585.0
1680103816033608,116046.0,131294.0,10583.0
1680103816043608,116065.0,131312.0,10586.0
1680103816053608,116010.0,131311.0,10530.0
1680103816064607,115988.0,131294.0,10585.0
1680103816073608,116040.0,131288.0,10581.0
1680103816082608,116024.0,131237.0,10589.0
1680103816092608,116028.0,131263.0,10575.0
1680103816103608,115996.0,131200.0,10596.0
1680103816112608,115973.0,131225.0,10578.0
1680103816123608,115948.0,131166.0,10572.0
1680103816133608,115917.0,131115.0,10596.0
1680103816142608,115889.0,131047.0,10603.0
1680103816153608,115853.0,131050.0,10568.0
1680103816163608,115828.0,131032.0,10584.0
1680103816173608,115808.0,130975.0,10581.0
1680103816184608,115785.0,130973.0,10585.0
1680103816194608,115758.0,130946.0,10618.0
1680103816205608,115797.0,130957.0,10599.0
1680103816212607,115814.0,130965.0,10598.0
1680103816222607,115818.0,130987.0,10599.0
1680103816232607,115781.0,131038.0,10589.0
1680103816243607,115867.0,131033.0,10567.0
1680103816253607,115860.0,131059.0,10598.0
1680103816262607,115895.0,131093.0,10587.0
1680103816272607,115880.0,131109.0,10596.0
1680103816283607,115937.0,131132.0,10586.0
1680103816293607,115910.0,131133.0,10578.0
1680103816302608,115962.0,131190.0,10585.0
1680103816313608,115973.0,131208.0,10577.0
1680103816324607,115987.0,131243.0,10581.0
1680103816334607,115995.0,131231.0,10583.0
1680103816342607,115998.0,131263.0,10612.0
1680103816352607,116023.0,131241.0,10592.0
1680103816363607,116008.0,131237.0,10571.0
1680103816373607,116015.0,131224.0,10593.0
1680103816382607,115987.0,131168.0,10586.0
1680103816392607,115974.0,131218.0,10583.0
1680103816402607,115931.0,131192.0,10595.0
1680103816413607,115975.0,131208.0,10549.0
1680103816422607,115964.0,131167.0,10591.0
1680103816433607,116001.0,131194.0,10596.0
1680103816444607,115956.0,131201.0,10578.0
1680103816452607,115918.0,131155.0,10592.0
1680103816462607,115954.0,131137.0,10581.0
1680103816472607,115949.0,131105.0,10596.0
1680103816482608,115933.0,131138.0,10582.0
1680103816493608,115934.0,131163.0,10591.0
1680103816502608,115924.0,131176.0,10591.0
1680103816512608,115960.0,131159.0,10553.0
1680103816523608,115968.0,131168.0,10599.0
1680103816532608,115966.0,131154.0,10596.0
1680103816543608,115977.0,131138.0,10580.0
1680103816552608,115982.0,131204.0,10581.0
1680103816562608,115948.0,131205.0,10547.0
1680103816573608,115987.0,131206.0,10563.0
1680103816584607,115983.0,131231.0,10589.0
1680103816592607,115988.0,131210.0,10618.0
1680103816602607,115991.0,131213.0,10574.0
1680103816612607,115988.0,131204.0,10552.0
1680103816623607,115989.0,131192.0,10583.0
1680103816632607,115990.0,131201.0,10584.0
1680103816642607,115997.0,131216.0,10582.0
1680103816652607,115927.0,131190.0,10596.0
1680103816663608,116002.0,131190.0,10575.0
1680103816672608,115982.0,131140.0,10601.0
1680103816682608,115986.0,131133.0,10597.0
1680103816692608,115978.0,131196.0,10596.0
1680103816703608,115935.0,131174.0,10592.0
1680103816712608,115961.0,131179.0,10576.0
1680103816722608,115985.0,131174.0,10584.0
1680103816733608,115976.0,131252.0,10574.0
1680103816744608,115974.0,131214.0,10579.0
1680103816754608,115932.0,131187.0,10574.0
1680103816762607,115947.0,131173.0,10618.0
1680103816773607,115992.0,131175.0,10567.0
1680103816782607,115981.0,131166.0,10585.0
1680103816793607,115975.0,131203.0,10588.0
1680103816802607,115956.0,131179.0,10591.0
1680103816812607,115990.0,131178.0,10596.0
1680103816822607,115920.0,131159.0,10592.0
1680103816833607,115968.0,131134.0,10576.0
1680103816842608,115941.0,131111.0,10586.0
1680103816852608,115921.0,131014.0,10586.0
1680103816863608,115894.0,131043.0,10586.0
1680103816872608,115882.0,131024.0,10592.0
1680103816882608,115819.0,130958.0,10548.0
1680103816893607,115780.0,130932.0,10570.0
1680103816904607,115764.0,130886.0,10580.0
1680103816912607,115764.0,130863.0,10591.0
1680103816922607,115742.0,130858.0,10587.0
1680103816932607,115773.0,130855.0,10561.0
1680103816942607,115775.0,130837.0,10588.0
1680103816953607,115781.0,130912.0,10579.0
1680103816962607,115794.0,130917.0,10568.0
1680103816972607,115829.0,130937.0,10586.0
1680103816982607,115837.0,130956.0,10587.0
1680103816992607,115860.0,130982.0,10586.0
1680103817003607,115881.0,131010.0,10592.0
1680103817012607,115884.0,131066.0,10576.0
1680103817023608,115918.0,131125.0,10578.0
1680103817034608,115917.0,131053.0,10587.0
1680103817044608,115933.0,131100.0,10577.0
1680103817052607,115964.0,131159.0,10620.0
1680103817063607,115937.0,131158.0,10593.0
1680103817072607,115983.0,131200.0,10588.0
1680103817083607,115986.0,131184.0,10588.0
1680103817091607,115995.0,131154.0,10574.0
1680103817102607,115987.0,131240.0,10576.0
1680103817112607,115944.0,131209.0,10573.0
1680103817122607,115982.0,131208.0,10556.0
1680103817132607,115987.0,131167.0,10595.0
1680103817142607,115978.0,131120.0,10595.0
1680103817152607,115965.0,131162.0,10566.0
1680103817163607,115961.0,131156.0,10579.0
1680103817173607,115961.0,131129.0,10587.0
1680103817181607,115928.0,131143.0,10578.0
1680103817192607,115964.0,131143.0,10551.0
1680103817203608,115947.0,131145.0,10587.0
1680103817212608,115940.0,131120.0,10587.0
1680103817222608,115960.0,131165.0,10594.0
1680103817232608,115955.0,131168.0,10582.0
1680103817242608,115972.0,131160.0,10551.0
1680103817252608,115960.0,131170.0,10591.0
1680103817262608,115974.0,131204.0,10595.0
1680103817272608,115990.0,131199.0,10577.0
1680103817283608,115997.0,131229.0,10583.0
1680103817293608,115991.0,131151.0,10578.0
1680103817301607,115990.0,131243.0,10582.0
1680103817312607,116002.0,131219.0,10548.0
1680103817322607,115998.0,131225.0,10603.0
1680103817332607,116014.0,131233.0,10589.0
1680103817342607,115977.0,131233.0,10599.0
1680103817352607,116030.0,131226.0,10588.0
1680103817362607,116018.0,131198.0,10597.0
1680103817373607,116018.0,131254.0,10585.0
1680103817381608,115957.0,131241.0,10595.0
1680103817392608,116008.0,131232.0,10550.0
1680103817402608,116020.0,131252.0,10552.0
1680103817412608,115998.0,131224.0,10573.0
1680103817422608,116015.0,131231.0,10563.0
1680103817434608,116025.0,131229.0,10584.0
1680103817444608,116008.0,131216.0,10566.0
1680103817452607,116006.0,131210.0,10582.0
1680103817462607,115988.0,131207.0,10595.0
1680103817471608,115994.0,131168.0,10582.0
1680103817482607,115986.0,131246.0,10581.0
1680103817492607,116012.0,131202.0,10558.0
1680103817502607,116011.0,131199.0,10561.0
1680103817512607,115977.0,131207.0,10593.0
1680103817522607,115944.0,131203.0,10589.0
1680103817532607,115967.0,131116.0,10587.0
1680103817542607,115961.0,131117.0,10581.0
1680103817553607,115904.0,131095.0,10545.0
1680103817563608,115863.0,131017.0,10572.0
1680103817574607,115867.0,130982.0,10577.0
1680103817583608,115828.0,130926.0,10599.0
1680103817591607,115780.0,130874.0,10569.0
1680103817602607,115751.0,130885.0,10591.0
1680103817612607,115759.0,130840.0,10555.0
1680103817622607,115759.0,130822.0,10567.0
1680103817632607,115749.0,130778.0,10593.0
1680103817641607,115690.0,130842.0,10579.0
1680103817652607,115741.0,130849.0,10524.0
1680103817662607,115772.0,130869.0,10562.0
1680103817672607,115762.0,130917.0,10570.0
1680103817684607,115784.0,130864.0,10575.0
1680103817692607,115784.0,130901.0,10585.0
1680103817702607,115759.0,130896.0,10582.0
1680103817712607,115818.0,130923.0,10567.0
1680103817721607,115821.0,130896.0,10576.0
1680103817732607,115825.0,130957.0,10570.0
1680103817743608,115834.0,130973.0,10563.0
1680103817752608,115862.0,130982.0,10584.0
1680103817762608,115868.0,131007.0,10576.0
1680103817772608,115825.0,130976.0,10582.0
1680103817782608,115874.0,131049.0,10571.0
1680103817792608,115877.0,131019.0,10574.0
1680103817802608,115874.0,131010.0,10569.0
1680103817812608,115860.0,131018.0,10567.0
1680103817823608,115815.0,131046.0,10560.0
1680103817834607,115849.0,130981.0,10570.0
1680103817841607,115822.0,130954.0,10606.0
1680103817852607,115833.0,130940.0,10572.0
1680103817862607,115807.0,130883.0,10574.0
1680103817872607,115803.0,130915.0,10569.0
1680103817882607,115801.0,130896.0,10551.0
1680103817891607,115784.0,130879.0,10574.0
1680103817902607,115779.0,130882.0,10577.0
1680103817912607,115743.0,130869.0,10564.0
1680103817921608,115769.0,130855.0,10541.0
1680103817932608,115784.0,130862.0,10566.0
1680103817942608,115770.0,130804.0,10566.0
1680103817952607,115763.0,130865.0,10571.0
1680103817962607,115761.0,130926.0,10557.0
1680103817974608,115761.0,130882.0,10557.0
1680103817982607,115761.0,130787.0,10572.0
1680103817992607,115754.0,130872.0,10566.0
1680103818003607,115768.0,130855.0,10537.0
1680103818011607,115758.0,130858.0,10567.0
1680103818022607,115751.0,130889.0,10575.0
1680103818032607,115727.0,130893.0,10567.0
1680103818042607,115752.0,130886.0,10559.0
1680103818052607,115784.0,130868.0,10546.0
1680103818061607,115741.0,130840.0,10557.0
1680103818072607,115782.0,130919.0,10557.0
1680103818083607,115785.0,130898.0,10527.0
1680103818091607,115782.0,130831.0,10565.0
1680103818102608,115790.0,130922.0,10568.0
1680103818112608,115823.0,130909.0,10564.0
1680103818122608,115780.0,130899.0,10528.0
1680103818132608,115776.0,130910.0,10554.0
1680103818144608,115757.0,130944.0,10555.0
1680103818151608,115783.0,130893.0,10550.0
1680103818162608,115757.0,130917.0,10567.0
1680103818171608,115776.0,130883.0,10550.0
1680103818181608,115787.0,130900.0,10533.0
1680103818192608,115777.0,130871.0,10561.0
1680103818202607,115771.0,130844.0,10566.0
1680103818212607,115751.0,130862.0,10563.0
1680103818221608,115703.0,130842.0,10562.0
1680103818232607,115726.0,130781.0,10562.0
1680103818242607,115702.0,130776.0,10566.0
1680103818252607,115652.0,130739.0,10557.0
1680103818262607,115641.0,130698.0,10523.0
1680103818273607,115603.0,130608.0,10558.0
1680103818284608,115547.0,130616.0,10601.0
1680103818292607,115582.0,130585.0,10546.0
1680103818301607,115570.0,130578.0,10556.0
1680103818312607,115560.0,130577.0,10570.0
1680103818321607,115566.0,130599.0,10571.0
1680103818332607,115540.0,130609.0,10566.0
1680103818341607,115589.0,130637.0,10563.0
1680103818351607,115587.0,130651.0,10561.0
1680103818362607,115642.0,130688.0,10565.0
1680103818372607,115631.0,130686.0,10549.0
1680103818381607,115643.0,130741.0,10549.0
1680103818391607,115688.0,130783.0,10556.0
1680103818402607,115660.0,130793.0,10550.0
1680103818412607,115727.0,130837.0,10533.0
1680103818422607,115743.0,130860.0,10561.0
1680103818433607,115754.0,130893.0,10551.0
1680103818444607,115770.0,130904.0,10544.0
1680103818452607,115777.0,130911.0,10570.0
1680103818462608,115784.0,130925.0,10572.0
1680103818471608,115737.0,130915.0,10567.0
1680103818482608,115757.0,130915.0,10565.0
1680103818492608,115742.0,130902.0,10567.0
1680103818502608,115782.0,130900.0,10561.0
1680103818512608,115764.0,130892.0,10557.0
1680103818521608,115754.0,130898.0,10561.0
1680103818532608,115743.0,130880.0,10564.0
1680103818542608,115747.0,130884.0,10555.0
1680103818551608,115704.0,130870.0,10564.0
1680103818562608,115741.0,130834.0,10562.0
1680103818572608,115732.0,130776.0,10568.0
1680103818582608,115724.0,130852.0,10561.0
1680103818592608,115763.0,130848.0,10559.0
1680103818603608,115723.0,130878.0,10558.0
1680103818611607,115739.0,130868.0,10564.0
1680103818622607,115734.0,130877.0,10533.0
1680103818631607,115738.0,130855.0,10567.0
1680103818641608,115755.0,130820.0,10566.0
1680103818652608,115749.0,130880.0,10560.0
1680103818662608,115741.0,130894.0,10559.0
1680103818671608,115751.0,130901.0,10560.0
1680103818682608,115740.0,130898.0,10539.0
1680103818692608,115755.0,130853.0,10566.0
1680103818702607,115784.0,130905.0,10538.0
1680103818712607,115790.0,130916.0,10565.0
1680103818723607,115770.0,130909.0,10532.0
1680103818731607,115767.0,130883.0,10564.0
1680103818742607,115735.0,130911.0,10575.0
1680103818752607,115768.0,130901.0,10555.0
1680103818761607,115761.0,130914.0,10560.0
1680103818772607,115772.0,130928.0,10570.0
1680103818781607,115732.0,130909.0,10565.0
1680103818792607,115776.0,130920.0,10546.0
1680103818801607,115783.0,130896.0,10563.0
1680103818811607,115738.0,130961.0,10552.0
1680103818822608,115796.0,130976.0,10568.0
1680103818831608,115806.0,130980.0,10550.0
1680103818841608,115805.0,130986.0,10543.0
1680103818852608,115814.0,130989.0,10546.0
1680103818861608,115843.0,130973.0,10573.0
1680103818872608,115836.0,131031.0,10561.0
1680103818881608,115855.0,131045.0,10567.0
1680103818892608,115841.0,131022.0,10533.0
1680103818903607,115824.0,130988.0,10563.0
1680103818914607,115810.0,130996.0,10598.0
1680103818923607,115754.0,130938.0,10561.0
1680103818931607,115759.0,130894.0,10572.0
1680103818942607,115711.0,130850.0,10580.0
1680103818951607,115676.0,130815.0,10571.0
1680103818962607,115620.0,130764.0,10572.0
1680103818971607,115646.0,130736.0,10545.0
1680103818981607,115625.0,130703.0,10568.0
1680103818992607,115627.0,130737.0,10574.0
1680103819002608,115599.0,130727.0,10575.0
1680103819011608,115665.0,130769.0,10562.0
1680103819022608,115666.0,130786.0,10572.0
1680103819031608,115705.0,130785.0,10575.0
1680103819042608,115722.0,130882.0,10564.0
1680103819052608,115794.0,130924.0,10548.0
1680103819062608,115770.0,130933.0,10573.0
1680103819073608,115806.0,131024.0,10565.0
1680103819082608,115813.0,131041.0,10595.0
1680103819091608,115868.0,131098.0,10575.0
1680103819101608,115876.0,131090.0,10564.0
1680103819112608,115898.0,131182.0,10564.0
1680103819121608,115903.0,131212.0,10581.0
1680103819131608,115966.0,131250.0,10542.0
1680103819141608,115979.0,131255.0,10581.0
1680103819151608,116003.0,131270.0,10567.0
1680103819162608,116007.0,131283.0,10575.0
1680103819171608,116020.0,131306.0,10572.0
1680103819182608,116028.0,131313.0,10574.0
1680103819193607,116000.0,131273.0,10568.0
1680103819201607,115996.0,131235.0,10582.0
1680103819212607,115990.0,131261.0,10581.0
1680103819221607,115974.0,131205.0,10572.0
1680103819231607,115940.0,131262.0,10586.0
1680103819241607,115927.0,131233.0,10584.0
1680103819252607,115970.0,131245.0,10548.0
1680103819261607,115948.0,131217.0,10575.0
1680103819271607,115959.0,131226.0,10564.0
1680103819282607,115967.0,131205.0,10581.0
1680103819291607,115948.0,131266.0,10579.0
1680103819301607,115955.0,131209.0,10578.0
1680103819311607,115932.0,131286.0,10585.0
1680103819321607,115973.0,131255.0,10533.0
1680103819332607,115997.0,131302.0,10590.0
1680103819342607,116041.0,131309.0,10579.0
1680103819353607,116007.0,131309.0,10610.0
1680103819364608,116004.0,131303.0,10585.0
1680103819372608,116032.0,131327.0,10578.0
1680103819381608,116029.0,131337.0,10583.0
1680103819391608,116041.0,131338.0,10586.0
1680103819401608,116010.0,131337.0,10575.0
1680103819411608,116006.0,131364.0,10589.0
1680103819421608,116035.0,131371.0,10582.0
1680103819430608,116005.0,131349.0,10584.0
1680103819441608,116050.0,131337.0,10573.0
1680103819452607,116043.0,131338.0,10592.0
1680103819461608,115986.0,131346.0,10580.0
1680103819471608,116029.0,131310.0,10587.0
1680103819481608,116002.0,131334.0,10561.0
1680103819492607,116027.0,131389.0,10574.0
1680103819503607,116019.0,131339.0,10574.0
1680103819511607,116013.0,131313.0,10576.0
1680103819521607,116000.0,131324.0,10576.0
1680103819532607,116025.0,131306.0,10543.0
1680103819541608,116022.0,131292.0,10584.0
1680103819551608,116027.0,131348.0,10592.0
1680103819561608,116041.0,131364.0,10585.0
1680103819571608,115999.0,131355.0,10585.0
1680103819581608,116048.0,131343.0,10561.0
1680103819591608,116051.0,131352.0,10563.0
1680103819601608,116039.0,131364.0,10571.0
1680103819611608,116040.0,131293.0,10588.0
1680103819622608,116039.0,131358.0,10579.0
1680103819631608,116055.0,131329.0,10567.0
1680103819642608,115984.0,131261.0,10581.0
1680103819653607,115926.0,131232.0,10576.0
1680103819663607,115924.0,131161.0,10587.0
1680103819673607,115906.0,131151.0,10597.0
1680103819681607,115864.0,131073.0,10572.0
1680103819691607,115813.0,131053.0,10595.0
1680103819702607,115829.0,131006.0,10561.0
1680103819711607,115819.0,130959.0,10585.0
1680103819721608,115808.0,131012.0,10570.0
1680103819731608,115784.0,131001.0,10567.0
1680103819741608,115840.0,131014.0,10545.0
1680103819752607,115817.0,131033.0,10579.0
1680103819760607,115836.0,131045.0,10574.0
1680103819771607,115822.0,131093.0,10582.0
1680103819781607,115865.0,131072.0,10570.0
1680103819792607,115882.0,131141.0,10577.0
1680103819800607,115920.0,131151.0,10544.0
1680103819811607,115942.0,131181.0,10552.0
1680103819821607,115942.0,131178.0,10587.0
1680103819831607,115941.0,131244.0,10580.0
1680103819841607,115976.0,131256.0,10562.0
1680103819851607,116016.0,131294.0,10579.0
1680103819861607,116059.0,131313.0,10575.0
1680103819871607,116023.0,131325.0,10545.0
1680103819881607,116034.0,131340.0,10579.0
1680103819892607,116005.0,131374.0,10580.0
1680103819902608,116048.0,131321.0,10577.0
1680103819913607,116040.0,131272.0,10578.0
1680103819923607,116028.0,131262.0,10604.0
1680103819931607,116004.0,131284.0,10586.0
1680103819941607,116005.0,131282.0,10589.0
1680103819951607,115954.0,131270.0,10588.0
1680103819961607,116004.0,131259.0,10572.0
1680103819971607,115986.0,131188.0,10590.0
1680103819981607,115985.0,131236.0,10571.0
1680103819991607,115975.0,131185.0,10574.0
1680103820001607,115968.0,131225.0,10574.0
1680103820011607,115987.0,131220.0,10537.0
1680103820021607,115976.0,131221.0,10591.0
1680103820031607,115926.0,131227.0,10583.0
1680103820041607,115972.0,131211.0,10586.0
1680103820051607,115984.0,131223.0,10591.0
1680103820061607,115996.0,131211.0,10590.0
1680103820071607,115991.0,131243.0,10579.0
1680103820081608,116026.0,131262.0,10569.0
1680103820092608,115985.0,131280.0,10522.0
1680103820102608,115965.0,131287.0,10575.0
1680103820113608,116020.0,131279.0,10592.0
1680103820123607,116011.0,131264.0,10595.0
1680103820130607,116014.0,131282.0,10575.0
1680103820141607,115995.0,131277.0,10583.0
1680103820151607,116025.0,131274.0,10569.0
1680103820161607,116027.0,131252.0,10576.0
1680103820171607,116019.0,131292.0,10572.0
1680103820181607,115980.0,131269.0,10562.0
1680103820191607,116022.0,131270.0,10580.0
1680103820201607,116005.0,131252.0,10584.0
1680103820211607,115966.0,131281.0,10583.0
1680103820221607,116014.0,131261.0,10585.0
1680103820231607,116008.0,131273.0,10573.0
1680103820241607,116045.0,131280.0,10584.0
1680103820251607,116013.0,131271.0,10536.0
1680103820262608,115999.0,131270.0,10572.0
1680103820273608,115968.0,131283.0,10620.0
1680103820283608,115973.0,131288.0,10575.0
1680103820293608,116021.0,131276.0,10608.0
1680103820300608,115981.0,131291.0,10583.0
1680103820311607,116041.0,131276.0,10567.0
1680103820321607,116037.0,131301.0,10577.0
1680103820331607,116026.0,131256.0,10580.0
1680103820340608,115988.0,131332.0,10589.0
1680103820351607,116039.0,131260.0,10570.0
1680103820361607,116015.0,131253.0,10580.0
1680103820371607,116017.0,131284.0,10579.0
1680103820380607,115962.0,131247.0,10578.0
1680103820391607,115985.0,131218.0,10554.0
1680103820401607,115965.0,131176.0,10572.0
1680103820411607,115969.0,131140.0,10593.0
1680103820421607,115892.0,131110.0,10537.0
1680103820430607,115836.0,131014.0,10571.0
1680103820441608,115855.0,131001.0,10544.0
1680103820451608,115803.0,130947.0,10586.0
1680103820461608,115788.0,130922.0,10581.0
1680103820471608,115770.0,130919.0,10595.0
1680103820480608,115765.0,130930.0,10584.0
1680103820491608,115804.0,130923.0,10546.0
1680103820501608,115805.0,130960.0,10575.0
1680103820510608,115799.0,130958.0,10560.0
1680103820521608,115822.0,130969.0,10584.0
1680103820531607,115838.0,130944.0,10582.0
1680103820541607,115845.0,130997.0,10585.0
1680103820551607,115864.0,131048.0,10551.0
1680103820561607,115843.0,131096.0,10566.0
1680103820572607,115883.0,131049.0,10569.0
1680103820583607,115894.0,131020.0,10557.0
1680103820590607,115900.0,131098.0,10606.0
1680103820601607,115922.0,131118.0,10549.0
1680103820611607,115933.0,131122.0,10576.0
1680103820621608,115936.0,131170.0,10576.0
1680103820630608,115914.0,131138.0,10573.0
1680103820641608,115939.0,131156.0,10569.0
1680103820650608,115934.0,131135.0,10566.0
1680103820661608,115951.0,131129.0,10538.0
1680103820671608,115918.0,131107.0,10577.0
1680103820680608,115880.0,131083.0,10567.0
1680103820691608,115907.0,131079.0,10537.0
1680103820701608,115899.0,131076.0,10559.0
1680103820712607,115841.0,131076.0,10556.0
1680103820723607,115883.0,131030.0,10562.0
1680103820730607,115879.0,130991.0,10564.0
1680103820741607,115869.0,131029.0,10550.0
1680103820752607,115830.0,130991.0,10567.0
1680103820760607,115865.0,131007.0,10564.0
1680103820771607,115837.0,130990.0,10556.0
1680103820780607,115817.0,130996.0,10561.0
1680103820791607,115854.0,130974.0,10546.0
1680103820801608,115844.0,130963.0,10563.0
1680103820810608,115851.0,130999.0,10565.0
1680103820821608,115866.0,130991.0,10564.0
1680103820831608,115916.0,131012.0,10564.0
1680103820840608,115820.0,131020.0,10545.0
1680103820851608,115868.0,131038.0,10537.0
1680103820862608,115860.0,131075.0,10561.0
1680103820872608,115891.0,131024.0,10551.0
1680103820882608,115874.0,131024.0,10562.0
1680103820891608,115890.0,131068.0,10601.0
1680103820901608,115871.0,131046.0,10553.0
1680103820911608,115888.0,131034.0,10566.0
1680103820921608,115871.0,131035.0,10561.0
1680103820930608,115864.0,131063.0,10566.0
1680103820941608,115891.0,131032.0,10526.0
1680103820951608,115874.0,131036.0,10575.0
1680103820961608,115854.0,131043.0,10563.0
1680103820971608,115882.0,131018.0,10569.0
1680103820980608,115920.0,131042.0,10565.0
1680103820991608,115861.0,131023.0,10523.0
1680103821002607,115878.0,131031.0,10554.0
1680103821012607,115873.0,131051.0,10555.0
1680103821020607,115845.0,131034.0,10561.0
1680103821031607,115880.0,131030.0,10552.0
1680103821041607,115861.0,131047.0,10562.0
1680103821050607,115859.0,131003.0,10563.0
1680103821061607,115857.0,131021.0,10569.0
1680103821070607,115841.0,131037.0,10563.0
1680103821081607,115885.0,131011.0,10539.0
1680103821090607,115880.0,130995.0,10566.0
1680103821100607,115877.0,131022.0,10563.0
1680103821111607,115871.0,131024.0,10569.0
1680103821121607,115881.0,131011.0,10565.0
1680103821130607,115857.0,131032.0,10565.0
1680103821141607,115853.0,131010.0,10522.0
1680103821152607,115834.0,130964.0,10555.0
1680103821163608,115775.0,130949.0,10608.0
1680103821171608,115796.0,130893.0,10554.0
1680103821180608,115772.0,130840.0,10545.0
1680103821191608,115729.0,130793.0,10572.0
1680103821200608,115703.0,130785.0,10562.0
1680103821211608,115652.0,130734.0,10549.0
1680103821220608,115672.0,130740.0,10563.0
1680103821230608,115636.0,130721.0,10545.0
1680103821241608,115667.0,130719.0,10565.0
1680103821251608,115634.0,130685.0,10557.0
1680103821260608,115697.0,130750.0,10563.0
1680103821271608,115665.0,130782.0,10551.0
1680103821281607,115710.0,130837.0,10558.0
1680103821292607,115748.0,130837.0,10557.0
1680103821300607,115756.0,130797.0,10559.0
1680103821310607,115773.0,130888.0,10562.0
1680103821321607,115791.0,130908.0,10533.0
1680103821331607,115818.0,130915.0,10568.0
1680103821340608,115815.0,130947.0,10577.0
1680103821350608,115828.0,130972.0,10560.0
1680103821361608,115859.0,131013.0,10571.0
1680103821371608,115844.0,130963.0,10570.0
1680103821380608,115898.0,131073.0,10554.0
1680103821390608,115903.0,131045.0,10538.0
1680103821401608,115887.0,131074.0,10543.0
1680103821411608,115913.0,131069.0,10562.0
1680103821421608,115896.0,131108.0,10557.0
1680103821431608,115893.0,131047.0,10552.0
1680103821440608,115881.0,131043.0,10563.0
1680103821451608,115866.0,130994.0,10570.0
1680103821461608,115884.0,131033.0,10555.0
1680103821470608,115851.0,131021.0,10546.0
1680103821481608,115876.0,131030.0,10562.0
1680103821490608,115833.0,130996.0,10568.0
1680103821501608,115872.0,130996.0,10580.0
1680103821510608,115868.0,131010.0,10566.0
1680103821520608,115886.0,131038.0,10517.0
1680103821531607,115861.0,131032.0,10545.0
1680103821542607,115887.0,131067.0,10564.0
1680103821552607,115890.0,131012.0,10561.0
1680103821560607,115885.0,131010.0,10569.0
1680103821571607,115906.0,131064.0,10563.0
1680103821580607,115911.0,131075.0,10560.0
1680103821590607,115904.0,131104.0,10531.0
1680103821601607,115915.0,131095.0,10577.0
1680103821610607,115937.0,131054.0,10571.0
1680103821621607,115929.0,131118.0,10565.0
1680103821630607,115923.0,131120.0,10549.0
1680103821640607,115920.0,131149.0,10566.0
1680103821651607,115963.0,131142.0,10568.0
1680103821660607,116014.0,131151.0,10580.0
1680103821671607,115975.0,131164.0,10528.0
1680103821682607,115957.0,131175.0,10551.0
1680103821690607,115987.0,131190.0,10564.0
1680103821701608,115982.0,131151.0,10571.0
1680103821711608,115979.0,131126.0,10558.0
1680103821720608,115982.0,131160.0,10555.0
1680103821730608,115980.0,131175.0,10576.0
1680103821741608,115989.0,131198.0,10574.0
1680103821750608,115979.0,131195.0,10570.0
1680103821760608,116009.0,131182.0,10552.0
1680103821771608,115999.0,131182.0,10583.0
1680103821780608,115999.0,131196.0,10572.0
1680103821791607,116010.0,131222.0,10581.0
1680103821800608,116012.0,131200.0,10553.0
1680103821810608,116016.0,131158.0,10575.0
1680103821821607,116022.0,131228.0,10578.0
1680103821831607,116079.0,131239.0,10577.0
1680103821840608,116048.0,131251.0,10572.0
1680103821851607,116038.0,131250.0,10550.0
1680103821862607,116025.0,131208.0,10569.0
1680103821873607,116050.0,131261.0,10605.0
1680103821880608,115987.0,131234.0,10581.0
1680103821890608,116039.0,131222.0,10558.0
1680103821901608,116031.0,131209.0,10564.0
1680103821910608,116008.0,131133.0,10571.0
1680103821921608,115974.0,131153.0,10567.0
1680103821930608,115903.0,131093.0,10568.0
1680103821940608,115913.0,131058.0,10577.0
1680103821951608,115853.0,131005.0,10558.0
1680103821961608,115843.0,130985.0,10573.0
1680103821970608,115821.0,130902.0,10577.0
1680103821980608,115858.0,130925.0,10582.0
1680103821990608,115796.0,130950.0,10553.0
1680103822001608,115828.0,130958.0,10559.0
1680103822012607,115857.0,131048.0,10574.0
1680103822022607,115856.0,130992.0,10601.0
1680103822030607,115847.0,131022.0,10575.0
1680103822041607,115912.0,131036.0,10562.0
1680103822050607,115925.0,131042.0,10585.0
1680103822060608,115943.0,131091.0,10575.0
1680103822071607,115962.0,131123.0,10570.0
1680103822080608,115978.0,131164.0,10574.0
1680103822090608,115950.0,131184.0,10584.0
1680103822100607,116021.0,131191.0,10568.0
1680103822110607,115991.0,131172.0,10581.0
1680103822121607,116053.0,131226.0,10578.0
1680103822129607,116062.0,131293.0,10592.0
1680103822140607,116091.0,131253.0,10566.0
1680103822151607,116099.0,131330.0,10579.0
1680103822162607,116093.0,131349.0,10578.0
1680103822172607,116068.0,131316.0,10569.0
1680103822180607,116108.0,131309.0,10575.0
1680103822190607,116088.0,131291.0,10576.0
1680103822200607,116043.0,131316.0,10588.0
1680103822211607,116093.0,131276.0,10547.0
1680103822220607,116085.0,131257.0,10585.0
1680103822230607,116038.0,131282.0,10579.0
1680103822240608,116065.0,131271.0,10567.0
1680103822251608,116060.0,131252.0,10588.0
1680103822260608,116070.0,131217.0,10584.0
1680103822271608,116073.0,131296.0,10565.0
1680103822282607,116066.0,131232.0,10580.0
1680103822293607,116069.0,131276.0,10607.0
1680103822300607,116072.0,131243.0,10586.0
1680103822310607,116078.0,131323.0,10574.0
1680103822320607,116069.0,131296.0,10566.0
1680103822330607,116110.0,131312.0,10554.0
1680103822340607,116113.0,131303.0,10591.0
1680103822350607,116109.0,131341.0,10587.0
1680103822360607,116106.0,131363.0,10574.0
1680103822371607,116121.0,131352.0,10566.0
1680103822380607,116102.0,131343.0,10584.0
1680103822390607,116127.0,131321.0,10588.0
1680103822400607,116157.0,131358.0,10588.0
1680103822411607,116133.0,131366.0,10536.0
1680103822421608,116127.0,131373.0,10577.0
1680103822432608,116100.0,131392.0,10570.0
1680103822440607,116085.0,131374.0,10588.0
1680103822451607,116124.0,131313.0,10587.0
1680103822460607,116089.0,131351.0,10591.0
1680103822470607,116145.0,131341.0,10554.0
1680103822480607,116135.0,131326.0,10584.0
1680103822490607,116147.0,131280.0,10587.0
1680103822501607,116133.0,131362.0,10583.0
1680103822509607,116085.0,131341.0,10587.0
1680103822520607,116130.0,131319.0,10558.0
1680103822531607,116131.0,131290.0,10591.0
1680103822540607,116092.0,131335.0,10588.0
1680103822550607,116121.0,131318.0,10584.0
1680103822560607,116124.0,131335.0,10583.0
1680103822570607,116157.0,131330.0,10572.0
1680103822581607,116113.0,131344.0,10538.0
1680103822590607,116082.0,131336.0,10571.0
1680103822601608,116129.0,131361.0,10579.0
1680103822611608,116109.0,131322.0,10577.0
1680103822622608,116119.0,131305.0,10568.0
1680103822632608,116125.0,131287.0,10599.0
1680103822639608,116125.0,131339.0,10568.0
1680103822650607,116110.0,131323.0,10554.0
1680103822661607,116131.0,131340.0,10555.0
1680103822670607,116113.0,131298.0,10588.0
1680103822680607,116098.0,131295.0,10572.0
1680103822690607,116059.0,131282.0,10586.0
1680103822700607,116093.0,131254.0,10571.0
1680103822711607,116048.0,131184.0,10589.0
1680103822719607,116019.0,131164.0,10586.0
1680103822730607,115937.0,131101.0,10594.0
1680103822741607,115956.0,131056.0,10584.0
1680103822750607,115880.0,130943.0,10587.0
1680103822760607,115900.0,130976.0,10588.0
1680103822771607,115862.0,130951.0,10577.0
1680103822781608,115860.0,130966.0,10575.0
1680103822792608,115848.0,130944.0,10570.0
1680103822800608,115870.0,130957.0,10577.0
1680103822810608,115887.0,130964.0,10561.0
1680103822820608,115880.0,130992.0,10584.0
1680103822831607,115908.0,131002.0,10590.0
1680103822839607,115926.0,131025.0,10593.0
1680103822850607,115908.0,131062.0,10585.0
1680103822860607,115979.0,131079.0,10575.0
1680103822870607,115985.0,131069.0,10580.0
1680103822880607,115999.0,131140.0,10572.0
1680103822889607,115978.0,131132.0,10574.0
1680103822900607,115994.0,131169.0,10520.0
1680103822911607,116052.0,131198.0,10567.0
1680103822921607,116051.0,131236.0,10579.0
1680103822932607,116067.0,131235.0,10568.0
1680103822942607,116045.0,131247.0,10587.0
1680103822950607,116080.0,131234.0,10568.0
1680103822961608,116081.0,131238.0,10589.0
1680103822969607,116077.0,131201.0,10578.0
1680103822980607,116070.0,131216.0,10578.0
1680103822990607,116061.0,131239.0,10573.0
1680103823000607,116077.0,131214.0,10552.0
1680103823009607,116056.0,131206.0,10586.0
1680103823020607,116043.0,131193.0,10579.0
1680103823030607,116053.0,131188.0,10569.0
1680103823040607,116014.0,131139.0,10577.0
1680103823050607,116036.0,131119.0,10598.0
1680103823059607,116047.0,131173.0,10569.0
1680103823070607,116042.0,131144.0,10574.0
1680103823081607,116040.0,131190.0,10587.0
1680103823089607,116077.0,131187.0,10580.0
1680103823100607,116043.0,131194.0,10544.0
1680103823111607,116063.0,131208.0,10588.0
1680103823121607,116049.0,131224.0,10585.0
1680103823131607,116019.0,131211.0,10584.0
1680103823140608,116058.0,131221.0,10608.0
1680103823150608,116091.0,131225.0,10590.0
1680103823160608,116089.0,131230.0,10585.0
1680103823171608,116080.0,131202.0,10592.0
1680103823179607,116078.0,131244.0,10577.0
1680103823190607,116073.0,131217.0,10562.0
1680103823200607,116067.0,131225.0,10589.0
1680103823210607,116080.0,131180.0,10544.0
1680103823220607,116066.0,131238.0,10586.0
1680103823231607,116072.0,131248.0,10573.0
1680103823241607,116057.0,131194.0,10576.0
1680103823252607,116061.0,131176.0,10572.0
1680103823260607,116027.0,131190.0,10613.0
1680103823270607,116069.0,131179.0,10576.0
1680103823280607,116044.0,131139.0,10587.0
1680103823290607,116031.0,131166.0,10578.0
1680103823299607,116027.0,131183.0,10582.0
1680103823310607,116055.0,131182.0,10551.0
1680103823320608,116039.0,131170.0,10577.0
1680103823330608,116052.0,131128.0,10572.0
1680103823340608,116052.0,131165.0,10575.0
1680103823350607,116079.0,131175.0,10577.0
1680103823361607,116037.0,131199.0,10576.0
1680103823372607,116031.0,131179.0,10574.0
1680103823379607,116045.0,131178.0,10586.0
1680103823390607,116047.0,131167.0,10594.0
1680103823399607,115995.0,131154.0,10591.0
1680103823410607,116025.0,131183.0,10592.0
1680103823421607,116069.0,131188.0,10589.0
1680103823429607,116058.0,131129.0,10578.0
1680103823440607,116056.0,131225.0,10577.0
1680103823450607,116045.0,131211.0,10563.0
1680103823460607,116073.0,131208.0,10581.0
1680103823470607,116075.0,131223.0,10582.0
1680103823479607,116034.0,131214.0,10572.0
1680103823490607,116074.0,131239.0,10588.0
1680103823500608,116069.0,131203.0,10584.0
1680103823510608,116071.0,131148.0,10569.0
1680103823521608,116061.0,131179.0,10574.0
1680103823532607,116045.0,131172.0,10597.0
1680103823542607,116000.0,131118.0,10603.0
1680103823549607,115974.0,131064.0,10583.0
1680103823560607,115956.0,131027.0,10584.0
1680103823570607,115900.0,130921.0,10569.0
1680103823580607,115839.0,130916.0,10589.0
1680103823590607,115846.0,130867.0,10565.0
1680103823599607,115812.0,130794.0,10579.0
1680103823610607,115795.0,130805.0,10573.0
1680103823620607,115791.0,130798.0,10570.0
1680103823629607,115788.0,130809.0,10545.0
1680103823640607,115798.0,130791.0,10581.0
1680103823650607,115822.0,130812.0,10574.0
1680103823660607,115810.0,130817.0,10542.0
1680103823671607,115817.0,130836.0,10566.0
1680103823681608,115838.0,130878.0,10568.0
1680103823692608,115836.0,130840.0,10587.0
1680103823700607,115860.0,130868.0,10567.0
1680103823711607,115871.0,130887.0,10562.0
1680103823719607,115876.0,130851.0,10577.0
1680103823730607,115897.0,130926.0,10570.0
1680103823740607,115881.0,130954.0,10556.0
1680103823750607,115924.0,130983.0,10579.0
1680103823760607,115914.0,130979.0,10566.0
1680103823769607,115924.0,130968.0,10576.0
1680103823780607,115938.0,130997.0,10577.0
1680103823790607,115956.0,131006.0,10553.0
1680103823799607,115946.0,130958.0,10575.0
1680103823810607,115944.0,130990.0,10573.0
1680103823820607,115978.0,131006.0,10572.0
1680103823830607,115932.0,130979.0,10531.0
1680103823840607,115913.0,130974.0,10560.0
1680103823849607,115886.0,130995.0,10560.0
1680103823860608,115900.0,130958.0,10554.0
1680103823871608,115888.0,130990.0,10560.0
1680103823879608,115882.0,130898.0,10565.0
1680103823891608,115872.0,130939.0,10558.0
1680103823902608,115870.0,130895.0,10593.0
1680103823910607,115834.0,130877.0,10574.0
1680103823920607,115846.0,130899.0,10555.0
1680103823930607,115864.0,130873.0,10551.0
1680103823939607,115853.0,130853.0,10569.0
1680103823950607,115853.0,130852.0,10567.0
1680103823960607,115842.0,130875.0,10563.0
1680103823969607,115858.0,130862.0,10543.0
1680103823980607,115861.0,130855.0,10559.0
1680103823990607,115833.0,130840.0,10567.0
1680103824000607,115860.0,130894.0,10559.0
1680103824010607,115874.0,130884.0,10557.0
1680103824020607,115876.0,130882.0,10571.0
1680103824031607,115867.0,130892.0,10562.0
1680103824042608,115849.0,130852.0,10555.0
1680103824049608,115862.0,130902.0,10609.0
1680103824059608,115879.0,130912.0,10565.0
1680103824070608,115867.0,130899.0,10558.0
1680103824080608,115852.0,130893.0,10550.0
1680103824089608,115880.0,130882.0,10556.0
1680103824100607,115872.0,130841.0,10554.0
1680103824109608,115868.0,130897.0,10569.0
1680103824120607,115859.0,130887.0,10527.0
1680103824130607,115862.0,130888.0,10532.0
1680103824139608,115861.0,130841.0,10563.0
1680103824150607,115848.0,130894.0,10537.0
1680103824161607,115850.0,130914.0,10546.0
1680103824171607,115848.0,130824.0,10557.0
1680103824179607,115840.0,130819.0,10560.0
1680103824190607,115852.0,130853.0,10564.0
1680103824199607,115793.0,130842.0,10560.0
1680103824210607,115846.0,130839.0,10540.0
1680103824219608,115794.0,130851.0,10561.0
1680103824230608,115852.0,130835.0,10540.0
1680103824240608,115834.0,130835.0,10553.0
1680103824250608,115815.0,130810.0,10570.0
1680103824259608,115830.0,130870.0,10568.0
1680103824269608,115807.0,130835.0,10569.0
1680103824280608,115837.0,130851.0,10545.0
1680103824290608,115832.0,130823.0,10564.0
1680103824299608,115843.0,130816.0,10562.0
1680103824310608,115832.0,130852.0,10563.0
1680103824319608,115865.0,130841.0,10548.0
1680103824330608,115829.0,130843.0,10502.0
1680103824340608,115825.0,130848.0,10551.0
1680103824351607,115832.0,130827.0,10562.0
1680103824362607,115818.0,130828.0,10594.0
1680103824369607,115811.0,130787.0,10565.0
1680103824379607,115759.0,130771.0,10566.0
1680103824390607,115757.0,130699.0,10552.0
1680103824399608,115719.0,130627.0,10557.0
1680103824410607,115688.0,130642.0,10559.0
1680103824420607,115654.0,130580.0,10557.0
1680103824429607,115625.0,130578.0,10555.0
1680103824440607,115617.0,130545.0,10528.0
1680103824450607,115568.0,130525.0,10567.0
1680103824460607,115609.0,130505.0,10562.0
1680103824469607,115609.0,130484.0,10542.0
1680103824480607,115622.0,130552.0,10538.0
1680103824490607,115625.0,130569.0,10551.0
1680103824501607,115638.0,130610.0,10555.0
1680103824509607,115632.0,130616.0,10549.0
1680103824519607,115689.0,130615.0,10516.0
1680103824530607,115680.0,130632.0,10529.0
1680103824540607,115712.0,130655.0,10549.0
1680103824549607,115721.0,130680.0,10553.0
1680103824559607,115750.0,130724.0,10565.0
1680103824570607,115732.0,130727.0,10567.0
1680103824580608,115771.0,130732.0,10542.0
1680103824589608,115746.0,130726.0,10562.0
1680103824600607,115801.0,130736.0,10554.0
1680103824609608,115830.0,130802.0,10554.0
1680103824620607,115807.0,130824.0,10529.0
1680103824630607,115778.0,130835.0,10548.0
1680103824641607,115806.0,130834.0,10551.0
1680103824652607,115784.0,130803.0,10536.0
1680103824660607,115799.0,130783.0,10559.0
1680103824670607,115793.0,130757.0,10568.0
1680103824679607,115779.0,130791.0,10570.0
1680103824689607,115750.0,130764.0,10548.0
1680103824700607,115780.0,130746.0,10564.0
1680103824710607,115773.0,130694.0,10569.0
1680103824719607,115766.0,130755.0,10561.0
1680103824730607,115733.0,130748.0,10548.0
1680103824739607,115776.0,130736.0,10565.0
1680103824750607,115747.0,130719.0,10554.0
1680103824759608,115743.0,130743.0,10551.0
1680103824769608,115718.0,130736.0,10569.0
1680103824779608,115726.0,130754.0,10566.0
1680103824790608,115779.0,130779.0,10567.0
1680103824799608,115793.0,130774.0,10567.0
1680103824809608,115794.0,130736.0,10566.0
1680103824820608,115794.0,130825.0,10544.0
1680103824831607,115807.0,130884.0,10553.0
1680103824839607,115824.0,130870.0,10599.0
1680103824849607,115817.0,130866.0,10563.0
1680103824859607,115847.0,130862.0,10531.0
1680103824869607,115838.0,130877.0,10566.0
1680103824879607,115855.0,130880.0,10567.0
1680103824889607,115860.0,130866.0,10559.0
1680103824899607,115851.0,130920.0,10555.0
1680103824910607,115888.0,130910.0,10537.0
1680103824920607,115852.0,130926.0,10570.0
1680103824929607,115834.0,130899.0,10568.0
1680103824939608,115873.0,130909.0,10568.0
1680103824950608,115851.0,130940.0,10558.0
1680103824961608,115880.0,130980.0,10560.0
1680103824971608,115863.0,130951.0,10569.0
1680103824979607,115909.0,130949.0,10571.0
1680103824989607,115889.0,130931.0,10572.0
1680103825000607,115899.0,130945.0,10554.0
1680103825009607,115900.0,130929.0,10567.0
1680103825019607,115906.0,130977.0,10567.0
1680103825029607,115898.0,130999.0,10545.0
1680103825040607,115903.0,130972.0,10563.0
1680103825049607,115906.0,130942.0,10562.0
1680103825059607,115904.0,130973.0,10577.0
1680103825069607,115963.0,131019.0,10574.0
1680103825080607,115893.0,131006.0,10559.0
1680103825089607,115926.0,131015.0,10553.0
1680103825100607,115935.0,131053.0,10564.0
1680103825110607,115933.0,131010.0,10570.0
1680103825121608,115927.0,131022.0,10563.0
1680103825131608,115922.0,131055.0,10616.0
1680103825139608,115906.0,131041.0,10579.0
1680103825149608,115911.0,131027.0,10580.0
1680103825160607,115948.0,131031.0,10558.0
1680103825170607,115953.0,130979.0,10580.0
1680103825179607,115931.0,131017.0,10578.0
1680103825189607,115915.0,130989.0,10569.0
1680103825199607,115863.0,130971.0,10578.0
1680103825210607,115872.0,130921.0,10549.0
1680103825219607,115850.0,130852.0,10575.0
1680103825230607,115810.0,130779.0,10577.0
1680103825239607,115773.0,130727.0,10574.0
1680103825250607,115752.0,130748.0,10565.0
1680103825260607,115760.0,130723.0,10549.0
1680103825270607,115718.0,130675.0,10569.0
1680103825281607,115720.0,130703.0,10569.0
1680103825290607,115678.0,130706.0,10616.0
1680103825299608,115732.0,130722.0,10582.0
1680103825309608,115748.0,130691.0,10559.0
1680103825320608,115768.0,130718.0,10576.0
1680103825329608,115785.0,130806.0,10565.0
1680103825339608,115789.0,130817.0,10560.0
1680103825349608,115837.0,130850.0,10577.0
1680103825359608,115853.0,130837.0,10555.0
1680103825370607,115853.0,130902.0,10581.0
1680103825379608,115923.0,130951.0,10577.0
1680103825391608,115890.0,130968.0,10573.0
1680103825400608,115909.0,130999.0,10562.0
1680103825409608,115935.0,131008.0,10578.0
1680103825420608,115951.0,131022.0,10579.0
1680103825429608,115946.0,131015.0,10568.0
1680103825439608,115938.0,131054.0,10574.0
1680103825449608,115926.0,131082.0,10579.0
1680103825460608,115990.0,131077.0,10547.0
1680103825469608,115976.0,131040.0,10580.0
1680103825479608,115972.0,131002.0,10565.0
1680103825490608,115974.0,131040.0,10576.0
1680103825499608,115990.0,131047.0,10570.0
1680103825510608,115946.0,131042.0,10542.0
1680103825519608,115917.0,131039.0,10570.0
1680103825530608,115961.0,131025.0,10548.0
1680103825539608,115942.0,131029.0,10570.0
1680103825549608,115919.0,131017.0,10560.0
1680103825559608,115940.0,131010.0,10580.0
1680103825569608,115938.0,130990.0,10570.0
1680103825580608,115916.0,131026.0,10585.0
1680103825588607,115919.0,131029.0,10588.0
1680103825599607,115950.0,131038.0,10573.0
1680103825610607,115960.0,131061.0,10543.0
1680103825620607,115967.0,130980.0,10573.0
1680103825629607,115969.0,131051.0,10584.0
1680103825639607,115958.0,130997.0,10573.0
1680103825650607,115982.0,131079.0,10551.0
1680103825661608,115971.0,131017.0,10576.0
1680103825671608,115981.0,131100.0,10612.0
1680103825678608,115977.0,131117.0,10590.0
1680103825689607,115970.0,131114.0,10585.0
1680103825700607,116010.0,131106.0,10585.0
1680103825709607,116015.0,131067.0,10566.0
1680103825719607,116028.0,131076.0,10575.0
1680103825729607,116016.0,131145.0,10581.0
1680103825739607,116012.0,131137.0,10553.0
1680103825750607,116028.0,131125.0,10586.0
1680103825758607,115986.0,131104.0,10575.0
1680103825769607,116031.0,131165.0,10584.0
1680103825780607,116017.0,131145.0,10558.0
1680103825789607,116022.0,131066.0,10574.0
1680103825799607,116021.0,131118.0,10593.0
1680103825809607,116059.0,131122.0,10579.0
1680103825819607,116014.0,131139.0,10529.0
1680103825830607,116022.0,131117.0,10571.0
1680103825839608,116023.0,131147.0,10576.0
1680103825850607,115997.0,131083.0,10569.0
1680103825861607,116003.0,131087.0,10570.0
1680103825871607,116006.0,131104.0,10606.0
1680103825879607,115974.0,131091.0,10586.0
1680103825889607,116018.0,131085.0,10563.0
1680103825899607,115971.0,131114.0,10583.0
1680103825909607,116013.0,131083.0,10571.0
1680103825920607,115998.0,131070.0,10578.0
1680103825929607,115997.0,131130.0,10581.0
1680103825939607,116000.0,131114.0,10579.0
1680103825949607,115963.0,131099.0,10583.0
1680103825959607,115971.0,131111.0,10584.0
1680103825969607,116016.0,131099.0,10559.0
1680103825979607,116028.0,131089.0,10582.0
1680103825990607,116012.0,131094.0,10551.0
1680103825999607,115961.0,131084.0,10583.0
1680103826009607,115996.0,131066.0,10591.0
1680103826020608,115968.0,131095.0,10574.0
1680103826030608,115935.0,130968.0,10574.0
1680103826041607,115903.0,130945.0,10574.0
1680103826049607,115871.0,130911.0,10618.0
1680103826059607,115814.0,130838.0,10575.0
1680103826069607,115828.0,130811.0,10574.0
1680103826080607,115800.0,130770.0,10581.0
1680103826088607,115775.0,130695.0,10580.0
1680103826099607,115743.0,130756.0,10585.0
1680103826109607,115763.0,130746.0,10559.0
1680103826119607,115759.0,130726.0,10576.0
1680103826129607,115770.0,130765.0,10586.0
1680103826138607,115741.0,130788.0,10565.0
1680103826149607,115802.0,130799.0,10544.0
1680103826160607,115817.0,130822.0,10573.0
1680103826170607,115847.0,130892.0,10576.0
1680103826181607,115864.0,130862.0,10574.0
1680103826189607,115859.0,130895.0,10566.0
1680103826199608,115885.0,130922.0,10551.0
1680103826210608,115896.0,130944.0,10576.0
1680103826219608,115907.0,130970.0,10585.0
1680103826229608,115920.0,130979.0,10582.0
1680103826239608,115943.0,131009.0,10576.0
1680103826250608,115912.0,131030.0,10587.0
1680103826258607,115911.0,131052.0,10584.0
1680103826269607,115994.0,131012.0,10588.0
1680103826279607,115976.0,131051.0,10584.0
1680103826289607,116013.0,131053.0,10540.0
1680103826299607,115991.0,131052.0,10550.0
1680103826309607,115970.0,131039.0,10574.0
1680103826320607,115960.0,130969.0,10571.0
1680103826331607,115948.0,131015.0,10577.0
1680103826340607,115955.0,130993.0,10593.0
1680103826351607,115914.0,130976.0,10573.0
1680103826359607,115949.0,130977.0,10590.0
1680103826369607,115927.0,130949.0,10571.0
1680103826379608,115925.0,130956.0,10571.0
1680103826389608,115900.0,130984.0,10588.0
1680103826399608,115873.0,130985.0,10576.0
1680103826409608,115893.0,130975.0,10590.0
1680103826420607,115941.0,130965.0,10574.0
1680103826428607,115940.0,130930.0,10584.0
1680103826439607,115941.0,130948.0,10573.0
1680103826449607,115943.0,131004.0,10575.0
1680103826459607,115956.0,130971.0,10553.0
1680103826469607,115956.0,131009.0,10586.0
1680103826479607,115955.0,131058.0,10580.0
1680103826490607,115948.0,131006.0,10575.0
1680103826501607,115933.0,131046.0,10580.0
1680103826508607,115976.0,131043.0,10578.0
1680103826519607,115961.0,131011.0,10581.0
1680103826529607,115967.0,130986.0,10582.0
1680103826539607,115975.0,131048.0,10570.0
1680103826549607,115954.0,131034.0,10559.0
1680103826559608,115973.0,131023.0,10583.0
1680103826569608,115950.0,130967.0,10583.0
1680103826579608,115912.0,130980.0,10570.0
1680103826588608,115962.0,131012.0,10578.0
1680103826599608,115960.0,130988.0,10548.0
1680103826609608,115963.0,131005.0,10569.0
1680103826619608,115939.0,130988.0,10532.0
1680103826629608,115941.0,130989.0,10569.0
1680103826641608,115902.0,131023.0,10578.0
1680103826648608,115934.0,130973.0,10587.0
1680103826659608,115924.0,130965.0,10558.0
1680103826669608,115940.0,130945.0,10577.0
1680103826679607,115910.0,130955.0,10573.0
1680103826689607,115916.0,130936.0,10553.0
1680103826699607,115914.0,130930.0,10576.0
1680103826709607,115916.0,130944.0,10578.0
1680103826718608,115870.0,130915.0,10585.0
1680103826729607,115911.0,130901.0,10539.0
1680103826739608,115912.0,130877.0,10574.0
1680103826749608,115849.0,130926.0,10567.0
