time,ecg,hr,rr,marker
1680104303049859342,0.042
1680104303057555382,0.0
1680104303065251422,-0.004
1680104303072947462,0.0
1680104303080643502,0.004
1680104303088339542,0.008
1680104303096035582,0.021
1680104303103731622,0.035
1680104303111427662,0.006
1680104303119123702,-0.058
1680104303126819742,-0.079
1680104303134515782,-0.05
1680104303142211822,-0.039
1680104303149907862,-0.056
1680104303157603902,-0.056
1680104303165299942,-0.033
1680104303172995982,-0.016
1680104303180692022,-0.021
1680104303188388062,-0.012
1680104303196084102,0.012
1680104303203780142,0.01
1680104303211476182,-0.002
1680104303219172222,0.027
1680104303226868262,0.077,,786
1680104303234564302,0.109
1680104303242260342,0.128
1680104303249956382,0.153
1680104303257652422,0.18
1680104303265348462,0.197
1680104303273044502,0.21
1680104303280740542,0.233
1680104303288436582,0.252
1680104303296132622,0.244
1680104303303828662,0.23500000000000001
1680104303311524702,0.252
1680104303319220742,0.271
1680104303326916782,0.269
1680104303334612822,0.262
1680104303342308862,0.262
1680104303350004902,0.265
1680104303357700942,0.26
1680104303365396982,0.265
1680104303373093022,0.281
1680104303380789062,0.294
1680104303388485102,0.281
1680104303396181142,0.273
1680104303403877182,0.298
1680104303411573222,0.326
1680104303419269262,0.321
1680104303426965302,0.296
1680104303434661342,0.275
1680104303442357382,0.26
1680104303450053422,0.231
1680104303457749462,0.201
1680104303465445502,0.20400000000000001
1680104303473141542,0.20800000000000002
1680104303480837582,0.178
1680104303488533622,0.14
1680104303496229662,0.11900000000000001
1680104303503925702,0.096
1680104303511621742,0.054
1680104303519317782,0.018000000000000002
1680104303527013822,0.006
1680104303534709862,-0.01
1680104303542405902,-0.063
1680104303550101942,-0.126
1680104303557797982,-0.151
1680104303565494022,-0.17400000000000002
1680104303573190062,-0.216
1680104303580886102,-0.229
1680104303588582142,-0.216
1680104303596278182,-0.197
1680104303603974222,-0.151
1680104303611670290,-0.113,79
1680104303619366748,-0.122
1680104303627063206,-0.13
1680104303634759664,-0.107
1680104303642456122,-0.073
1680104303650152580,-0.061
1680104303657849038,-0.065
1680104303665545496,-0.082
1680104303673241954,-0.134
1680104303680938412,-0.357
1680104303688634870,-0.833
1680104303696331328,-1.274
1680104303704027786,-1.1480000000000001
1680104303711724244,-0.34500000000000003
1680104303719420702,0.326
1680104303727117160,0.197
1680104303734813618,-0.126
1680104303742510076,-0.08600000000000001
1680104303750206534,-0.004
1680104303757902992,-0.048
1680104303765599450,-0.042
1680104303773295908,0.002
1680104303780992366,-0.002
1680104303788688824,0.006
1680104303796385282,0.033
1680104303804081740,0.021
1680104303811778198,0.0
1680104303819474656,0.027
1680104303827171114,0.061
1680104303834867572,0.058
1680104303842564030,0.046
1680104303850260488,0.05
1680104303857956946,0.065
1680104303865653404,0.069
1680104303873349862,0.07100000000000001
1680104303881046320,0.08600000000000001
1680104303888742778,0.10300000000000001
1680104303896439236,0.094
1680104303904135694,0.084
1680104303911832152,0.084
1680104303919528610,0.069
1680104303927225068,0.046
1680104303934921526,0.052000000000000005
1680104303942617984,0.069
1680104303950314442,0.082
1680104303958010900,0.092
1680104303965707358,0.10300000000000001
1680104303973403816,0.124
1680104303981100274,0.138
1680104303988796732,0.138
1680104303996493190,0.151
1680104304004189648,0.195
1680104304011886106,0.229,,786
1680104304019582564,0.241
1680104304027279022,0.262
1680104304034975480,0.279
1680104304042671938,0.258
1680104304050368396,0.20400000000000001
1680104304058064854,0.176
1680104304065761312,0.201
1680104304073457770,0.20400000000000001
1680104304081154228,0.166
1680104304088850686,0.166
1680104304096547144,0.197
1680104304104243602,0.193
1680104304111940060,0.18
1680104304119636518,0.199
1680104304127332976,0.21
1680104304135029434,0.199
1680104304142725892,0.20800000000000002
1680104304150422350,0.229
1680104304158118808,0.222
1680104304165815266,0.185
1680104304173511756,0.161
1680104304181208214,0.17200000000000001
1680104304188904672,0.185
1680104304196601130,0.18
1680104304204297588,0.185
1680104304211994046,0.20800000000000002
1680104304219690504,0.201
1680104304227386962,0.138
1680104304235083420,0.075
1680104304242779878,0.063
1680104304250476336,0.067
1680104304258172794,0.052000000000000005
1680104304265869252,0.037
1680104304273565710,0.027
1680104304281262168,-0.002
1680104304288958626,-0.033
1680104304296655084,-0.058
1680104304304351542,-0.092
1680104304312048000,-0.13
1680104304319744458,-0.161
1680104304327440916,-0.17
1680104304335137374,-0.155
1680104304342833832,-0.128
1680104304350530290,-0.107
1680104304358226748,-0.1
1680104304365923206,-0.094
1680104304373619664,-0.079
1680104304381316122,-0.069
1680104304389012580,-0.061
1680104304396709038,-0.048
1680104304404405496,-0.054
1680104304412101954,-0.079
1680104304419798412,-0.124
1680104304427494870,-0.342
1680104304435191328,-0.803
1680104304442887786,-1.157
1680104304450584244,-0.849
1680104304458280702,0.046
1680104304465977160,0.549
1680104304473673618,0.279
1680104304481370076,0.021
1680104304489066534,0.088
1680104304496762992,0.109
1680104304504459450,0.058
1680104304512155908,0.094
1680104304519852366,0.132
1680104304527548824,0.117
1680104304535245282,0.113
1680104304542941740,0.094
1680104304550638198,0.023
1680104304558334656,-0.021
1680104304566031114,-0.002
1680104304573727572,0.014
1680104304581424030,0.006
1680104304589120488,-0.008
1680104304596816946,-0.004
1680104304604513404,0.012
1680104304612209862,0.021
1680104304619906320,0.023
1680104304627602778,0.027
1680104304635299236,0.031
1680104304642995694,0.042
1680104304650692152,0.05
1680104304658388610,0.035
1680104304666085068,0.025
1680104304673781526,0.029
1680104304681477984,0.029
1680104304689174442,0.039
1680104304696870900,0.067
1680104304704567358,0.082
1680104304712263816,0.09
1680104304719960274,0.113
1680104304727656732,0.13
1680104304735353222,0.136,79
1680104304743049680,0.161
1680104304750746138,0.212
1680104304758442596,0.252
1680104304766139054,0.262
1680104304773835512,0.26,,761
1680104304781531970,0.271
1680104304789228428,0.273
1680104304796924886,0.225
1680104304804621344,0.168
1680104304812317802,0.164
1680104304820014260,0.168
1680104304827710718,0.14
1680104304835407176,0.136
1680104304843103634,0.159
1680104304850800092,0.17200000000000001
1680104304858496550,0.164
1680104304866193008,0.155
1680104304873889466,0.166
1680104304881585924,0.18
1680104304889282382,0.183
1680104304896978840,0.17200000000000001
1680104304904675298,0.147
1680104304912371756,0.117
1680104304920068214,0.109
1680104304927764672,0.13
1680104304935461130,0.149
1680104304943157588,0.155
1680104304950854046,0.157
1680104304958550504,0.164
1680104304966246962,0.178
1680104304973943420,0.187
1680104304981639878,0.191
1680104304989336336,0.197
1680104304997032794,0.189
1680104305004729252,0.149
1680104305012425710,0.128
1680104305020122168,0.147
1680104305027818626,0.155
1680104305035515084,0.113
1680104305043211542,0.042
1680104305050908000,-0.052000000000000005
1680104305058604458,-0.159
1680104305066300916,-0.193
1680104305073997374,-0.145
1680104305081693832,-0.124
1680104305089390290,-0.147
1680104305097086748,-0.159
1680104305104783206,-0.149
1680104305112479664,-0.134
1680104305120176122,-0.124
1680104305127872580,-0.11900000000000001
1680104305135569038,-0.111
1680104305143265496,-0.126
1680104305150961954,-0.28600000000000003
1680104305158658412,-0.685
1680104305166354870,-1.157
1680104305174051328,-1.249
1680104305181747786,-0.614
1680104305189444244,0.23900000000000002
1680104305197140702,0.355
1680104305204837160,-0.027
1680104305212533618,-0.094
1680104305220230076,0.023
1680104305227926534,0.0
1680104305235622992,-0.018000000000000002
1680104305243319450,0.018000000000000002
1680104305251015908,0.018000000000000002
1680104305258712366,0.023
1680104305266408824,0.056
1680104305274105282,0.061
1680104305281801740,0.039
1680104305289498198,0.052000000000000005
1680104305297194688,0.077,79
1680104305304891146,0.082
1680104305312587604,0.08600000000000001
1680104305320284062,0.098
1680104305327980520,0.08600000000000001
1680104305335676978,0.037
1680104305343373436,-0.004
1680104305351069894,0.004
1680104305358766352,0.01
1680104305366462810,-0.042
1680104305374159268,-0.098
1680104305381855726,-0.096
1680104305389552184,-0.08600000000000001
1680104305397248642,-0.109
1680104305404945100,-0.10300000000000001
1680104305412641558,-0.065
1680104305420338016,-0.054
1680104305428034474,-0.056
1680104305435730932,-0.035
1680104305443427390,-0.008
1680104305451123848,0.008
1680104305458820306,0.023
1680104305466516764,0.046
1680104305474213222,0.082
1680104305481909680,0.11900000000000001
1680104305489606138,0.14
1680104305497302596,0.166
1680104305504999054,0.199
1680104305512695512,0.20400000000000001
1680104305520391970,0.193
1680104305528088428,0.21
1680104305535784886,0.23900000000000002,,760
1680104305543481344,0.248
1680104305551177802,0.212
1680104305558874260,0.145
1680104305566570718,0.122
1680104305574267176,0.134
1680104305581963634,0.134
1680104305589660092,0.145
1680104305597356550,0.164
1680104305605053008,0.153
1680104305612749466,0.14
1680104305620445924,0.164
1680104305628142382,0.191
1680104305635838840,0.193
1680104305643535298,0.17400000000000002
1680104305651231756,0.157
1680104305658928214,0.161
1680104305666624672,0.168
1680104305674321130,0.17200000000000001
1680104305682017588,0.197
1680104305689714046,0.22
1680104305697410504,0.21
1680104305705106962,0.201
1680104305712803420,0.227
1680104305720499878,0.25
1680104305728196336,0.252
1680104305735892794,0.252
1680104305743589252,0.26
1680104305751285710,0.256
1680104305758982168,0.229
1680104305766678626,0.214
1680104305774375084,0.231
1680104305782071542,0.22
1680104305789768000,0.153
1680104305797464458,0.092
1680104305805160916,0.063
1680104305812857374,0.033
1680104305820553832,0.018000000000000002
1680104305828250290,0.033
1680104305835946748,0.033
1680104305843643206,0.004
1680104305851339664,-0.004
1680104305859036154,0.012
1680104305866732612,0.021
1680104305874429070,0.006
1680104305882125528,-0.033
1680104305889821986,-0.065
1680104305897518444,-0.128
1680104305905214902,-0.433
1680104305912911360,-0.976
1680104305920607818,-1.331
1680104305928304276,-1.0070000000000001
1680104305936000734,-0.124
1680104305943697192,0.359
1680104305951393650,0.082
1680104305959090108,-0.166
1680104305966786566,-0.07100000000000001
1680104305974483024,-0.037
1680104305982179482,-0.082
1680104305989875940,-0.044
1680104305997572398,-0.018000000000000002
1680104306005268856,-0.029
1680104306012965314,-0.012
1680104306020661772,0.002
1680104306028358230,-0.014
1680104306036054688,-0.006
1680104306043751146,0.027
1680104306051447604,0.01
1680104306059144062,-0.052000000000000005
1680104306066840520,-0.082
1680104306074536978,-0.065
1680104306082233436,-0.058
1680104306089929894,-0.061
1680104306097626352,-0.046
1680104306105322810,-0.029
1680104306113019268,-0.035
1680104306120715726,-0.046
1680104306128412184,-0.05
1680104306136108642,-0.063
1680104306143805100,-0.07100000000000001
1680104306151501558,-0.065
1680104306159198016,-0.054
1680104306166894474,-0.035
1680104306174590932,-0.014
1680104306182287390,0.002
1680104306189983848,0.023
1680104306197680306,0.042
1680104306205376764,0.042
1680104306213073222,0.05
1680104306220769680,0.096
1680104306228466138,0.145
1680104306236162596,0.166
1680104306243859054,0.183
1680104306251555512,0.20800000000000002
1680104306259251970,0.218
1680104306266948428,0.227
1680104306274644886,0.241
1680104306282341344,0.26
1680104306290037802,0.267
1680104306297734260,0.254,,764
1680104306305430718,0.25
1680104306313127176,0.273
1680104306320823634,0.298
1680104306328520092,0.298
1680104306336216550,0.28300000000000003
1680104306343913008,0.275
1680104306351609466,0.271
1680104306359305924,0.279
1680104306367002382,0.296
1680104306374698840,0.296
1680104306382395298,0.26
1680104306390091756,0.218
1680104306397788214,0.216
1680104306405484672,0.23700000000000002
1680104306413181130,0.244
1680104306420877622,0.241,79
1680104306428574080,0.25
1680104306436270538,0.252
1680104306443966996,0.254
1680104306451663454,0.26
1680104306459359912,0.271
1680104306467056370,0.28800000000000003
1680104306474752828,0.292
1680104306482449286,0.273
1680104306490145744,0.265
1680104306497842202,0.275
1680104306505538660,0.25
1680104306513235118,0.193
1680104306520931576,0.159
1680104306528628034,0.14300000000000002
1680104306536324492,0.122
1680104306544020950,0.105
1680104306551717408,0.069
1680104306559413866,-0.025
1680104306567110324,-0.132
1680104306574806782,-0.189
1680104306582503240,-0.20600000000000002
1680104306590199698,-0.193
1680104306597896156,-0.17200000000000001
1680104306605592614,-0.164
1680104306613289072,-0.164
1680104306620985530,-0.187
1680104306628681988,-0.218
1680104306636378446,-0.218
1680104306644074904,-0.195
1680104306651771362,-0.18
1680104306659467820,-0.178
1680104306667164278,-0.26
1680104306674860736,-0.5670000000000001
1680104306682557194,-1.049
1680104306690253652,-1.268
1680104306697950110,-0.736
1680104306705646568,0.178
1680104306713343026,0.429
1680104306721039484,0.048
1680104306728735942,-0.088
1680104306736432400,0.048
1680104306744128858,0.054
1680104306751825316,0.006
1680104306759521774,0.035
1680104306767218232,0.058
1680104306774914690,0.05
1680104306782611148,0.056
1680104306790307606,0.079
1680104306798004064,0.09
1680104306805700522,0.073
1680104306813396980,0.063
1680104306821093438,0.082
1680104306828789896,0.1
1680104306836486354,0.098
1680104306844182812,0.094
1680104306851879270,0.098
1680104306859575728,0.107
1680104306867272186,0.105
1680104306874968644,0.077
1680104306882665102,0.067
1680104306890361560,0.079
1680104306898058018,0.073
1680104306905754476,0.067
1680104306913450934,0.098
1680104306921147392,0.132
1680104306928843850,0.14
1680104306936540308,0.145
1680104306944236766,0.159
1680104306951933224,0.166
1680104306959629682,0.161
1680104306967326140,0.178
1680104306975022598,0.218
1680104306982719088,0.241
1680104306990415546,0.23700000000000002
1680104306998112004,0.254
1680104307005808462,0.296
1680104307013504920,0.323
1680104307021201378,0.336
1680104307028897836,0.34900000000000003
1680104307036594294,0.34500000000000003
1680104307044290752,0.3
1680104307051987210,0.248
1680104307059683668,0.225,,764
1680104307067380126,0.178
1680104307075076584,0.1
1680104307082773042,0.065
1680104307090469500,0.07100000000000001
1680104307098165958,0.077
1680104307105862416,0.073
1680104307113558874,0.061
1680104307121255332,0.035
1680104307128951790,0.014
1680104307136648248,0.01
1680104307144344706,0.018000000000000002
1680104307152041164,0.037
1680104307159737622,0.056
1680104307167434080,0.065
1680104307175130538,0.065
1680104307182826996,0.077
1680104307190523454,0.10300000000000001
1680104307198219912,0.117
1680104307205916370,0.128
1680104307213612828,0.149
1680104307221309286,0.157
1680104307229005744,0.151
1680104307236702202,0.161
1680104307244398660,0.189
1680104307252095118,0.21
1680104307259791576,0.21
1680104307267488034,0.20600000000000002
1680104307275184492,0.212
1680104307282880950,0.20600000000000002
1680104307290577408,0.178
1680104307298273866,0.18
1680104307305970324,0.191
1680104307313666782,0.157
1680104307321363240,0.10300000000000001
1680104307329059698,0.065
1680104307336756156,0.035
1680104307344452614,0.014
1680104307352149072,0.014
1680104307359845530,-0.008
1680104307367541988,-0.065
1680104307375238446,-0.088
1680104307382934904,-0.079
1680104307390631362,-0.077
1680104307398327820,-0.079
1680104307406024278,-0.09
1680104307413720736,-0.092
1680104307421417194,-0.096
1680104307429113652,-0.269
1680104307436810110,-0.7020000000000001
1680104307444506568,-1.123
1680104307452203026,-0.995
1680104307459899484,-0.18
1680104307467595942,0.485
1680104307475292400,0.34500000000000003
1680104307482988858,0.025
1680104307490685316,0.046
1680104307498381774,0.096
1680104307506078232,0.05
1680104307513774690,0.07100000000000001
1680104307521471148,0.109
1680104307529167606,0.096
1680104307536864064,0.092
1680104307544560554,0.107,79
1680104307552256594,0.105
1680104307559952634,0.098
1680104307567648674,0.09
1680104307575344714,0.037
1680104307583040754,-0.023
1680104307590736794,-0.046
1680104307598432834,-0.048
1680104307606128874,-0.069
1680104307613824914,-0.136
1680104307621520954,-0.20400000000000001
1680104307629216994,-0.20800000000000002
1680104307636913034,-0.199
1680104307644609074,-0.22
1680104307652305114,-0.22
1680104307660001154,-0.187
1680104307667697194,-0.159
1680104307675393234,-0.151
1680104307683089274,-0.145
1680104307690785314,-0.11900000000000001
1680104307698481354,-0.084
1680104307706177394,-0.065
1680104307713873434,-0.052000000000000005
1680104307721569474,-0.025
1680104307729265514,-0.008
1680104307736961554,0.0
1680104307744657594,0.039
1680104307752353634,0.092
1680104307760049674,0.13
1680104307767745714,0.149
1680104307775441754,0.164
1680104307783137794,0.168
1680104307790833834,0.14
1680104307798529874,0.105
1680104307806225914,0.10300000000000001,,745
1680104307813921954,0.122
1680104307821617994,0.111
1680104307829314034,0.09
1680104307837010074,0.10300000000000001
1680104307844706114,0.128
1680104307852402154,0.126
1680104307860098194,0.096
1680104307867794234,0.079
1680104307875490274,0.092
1680104307883186314,0.107
1680104307890882354,0.109
1680104307898578394,0.126
1680104307906274434,0.151
1680104307913970474,0.147
1680104307921666514,0.14
1680104307929362554,0.168
1680104307937058594,0.197
1680104307944754634,0.20400000000000001
1680104307952450674,0.20400000000000001
1680104307960146714,0.214
1680104307967842754,0.227
1680104307975538794,0.229
1680104307983234834,0.241
1680104307990930874,0.267
1680104307998626914,0.277
1680104308006322954,0.267
1680104308014018994,0.262
1680104308021715034,0.275
1680104308029411074,0.262
1680104308037107114,0.231
1680104308044803154,0.222
1680104308052499194,0.222
1680104308060195234,0.201
1680104308067891274,0.147
1680104308075587314,0.048
1680104308083283354,-0.039
1680104308090979394,-0.061
1680104308098675434,-0.069
1680104308106371502,-0.107
1680104308114067612,-0.13
1680104308121763722,-0.122
1680104308129459832,-0.126
1680104308137155942,-0.134
1680104308144852052,-0.14
1680104308152548162,-0.17200000000000001
1680104308160244272,-0.212
1680104308167940382,-0.222
1680104308175636492,-0.338
1680104308183332602,-0.746
1680104308191028712,-1.247
1680104308198724822,-1.274
1680104308206420932,-0.538
1680104308214117042,0.279
1680104308221813152,0.29
1680104308229509262,-0.088
1680104308237205372,-0.111
1680104308244901482,-0.008
1680104308252597592,-0.048
1680104308260293702,-0.042
1680104308267989812,0.021
1680104308275685922,0.012
1680104308283382032,-0.014
1680104308291078142,0.01
1680104308298774252,0.035
1680104308306470362,0.033
1680104308314166472,0.044
1680104308321862582,0.065
1680104308329558692,0.067
1680104308337254802,0.052000000000000005
1680104308344950912,0.039
1680104308352647022,0.021
1680104308360343132,0.004
1680104308368039242,-0.004
1680104308375735352,-0.01
1680104308383431462,0.0
1680104308391127572,0.016
1680104308398823682,0.021
1680104308406519792,0.031
1680104308414215902,0.052000000000000005
1680104308421912012,0.056
1680104308429608122,0.056
1680104308437304232,0.08600000000000001
1680104308445000342,0.11900000000000001
1680104308452696452,0.138
1680104308460392562,0.145
1680104308468088672,0.138
1680104308475784782,0.147
1680104308483480892,0.17200000000000001
1680104308491177002,0.195
1680104308498873112,0.227
1680104308506569222,0.265
1680104308514265332,0.277
1680104308521961442,0.277
1680104308529657552,0.298
1680104308537353662,0.323,,728
1680104308545049772,0.33
1680104308552745882,0.326
1680104308560441992,0.321
1680104308568138102,0.319
1680104308575834212,0.294
1680104308583530322,0.23700000000000002
1680104308591226432,0.193
1680104308598922542,0.155
1680104308606618652,0.107
1680104308614314762,0.092
1680104308622010872,0.113
1680104308629706982,0.126
1680104308637403092,0.126
1680104308645099202,0.13
1680104308652795312,0.136
1680104308660491422,0.14
1680104308668187538,0.149,79
1680104308675883926,0.164
1680104308683580314,0.187
1680104308691276702,0.195
1680104308698973090,0.183
1680104308706669478,0.183
1680104308714365866,0.20800000000000002
1680104308722062254,0.201
1680104308729758642,0.155
1680104308737455030,0.128
1680104308745151418,0.136
1680104308752847806,0.117
1680104308760544194,0.082
1680104308768240582,0.079
1680104308775936970,0.096
1680104308783633358,0.082
1680104308791329746,0.039
1680104308799026134,0.008
1680104308806722522,-0.016
1680104308814418910,-0.067
1680104308822115298,-0.11900000000000001
1680104308829811686,-0.145
1680104308837508074,-0.166
1680104308845204462,-0.189
1680104308852900850,-0.187
1680104308860597238,-0.168
1680104308868293626,-0.159
1680104308875990014,-0.164
1680104308883686402,-0.17200000000000001
1680104308891382790,-0.164
1680104308899079178,-0.14300000000000002
1680104308906775566,-0.128
1680104308914471954,-0.122
1680104308922168342,-0.227
1680104308929864730,-0.607
1680104308937561118,-1.102
1680104308945257506,-1.18
1680104308952953894,-0.494
1680104308960650282,0.355
1680104308968346670,0.424
1680104308976043058,0.027
1680104308983739446,-0.023
1680104308991435834,0.098
1680104308999132222,0.069
1680104309006828610,0.054
1680104309014524998,0.107
1680104309022221386,0.098
1680104309029917774,0.07100000000000001
1680104309037614162,0.092
1680104309045310550,0.11900000000000001
1680104309053006938,0.122
1680104309060703326,0.117
1680104309068399714,0.109
1680104309076096102,0.069
1680104309083792490,-0.006
1680104309091488878,-0.061
1680104309099185266,-0.063
1680104309106881654,-0.054
1680104309114578042,-0.073
1680104309122274430,-0.08600000000000001
1680104309129970818,-0.063
1680104309137667206,-0.044
1680104309145363594,-0.044
1680104309153059982,-0.035
1680104309160756370,-0.021
1680104309168452758,-0.01
1680104309176149146,0.008
1680104309183845534,0.031
1680104309191541922,0.061
1680104309199238310,0.084
1680104309206934698,0.082
1680104309214631086,0.084
1680104309222327474,0.111
1680104309230023916,0.14,79
1680104309237720026,0.157
1680104309245416136,0.183
1680104309253112246,0.21
1680104309260808356,0.21
1680104309268504466,0.176
1680104309276200576,0.159
1680104309283896686,0.183,,750
1680104309291592796,0.191
1680104309299288906,0.166
1680104309306985016,0.157
1680104309314681126,0.178
1680104309322377236,0.197
1680104309330073346,0.193
1680104309337769456,0.164
1680104309345465566,0.134
1680104309353161676,0.13
1680104309360857786,0.13
1680104309368553896,0.136
1680104309376250006,0.159
1680104309383946116,0.17
1680104309391642226,0.159
1680104309399338336,0.164
1680104309407034446,0.189
1680104309414730556,0.201
1680104309422426666,0.20800000000000002
1680104309430122776,0.222
1680104309437818886,0.231
1680104309445514996,0.227
1680104309453211106,0.233
1680104309460907216,0.256
1680104309468603326,0.277
1680104309476299436,0.273
1680104309483995546,0.26
1680104309491691656,0.267
1680104309499387766,0.281
1680104309507083876,0.267
1680104309514779986,0.23500000000000001
1680104309522476096,0.233
1680104309530172206,0.23500000000000001
1680104309537868316,0.214
1680104309545564426,0.189
1680104309553260536,0.155
1680104309560956646,0.109
1680104309568652756,0.044
1680104309576348866,-0.033
1680104309584044976,-0.098
1680104309591741086,-0.117
1680104309599437196,-0.105
1680104309607133306,-0.105
1680104309614829416,-0.107
1680104309622525526,-0.107
1680104309630221636,-0.115
1680104309637917746,-0.111
1680104309645613856,-0.094
1680104309653309966,-0.082
1680104309661006076,-0.079
1680104309668702186,-0.164
1680104309676398296,-0.485
1680104309684094406,-0.974
1680104309691790516,-1.18
1680104309699486626,-0.635
1680104309707182736,0.265
1680104309714878846,0.488
1680104309722574956,0.105
1680104309730271066,-0.016
1680104309737967176,0.111
1680104309745663286,0.10300000000000001
1680104309753359396,0.056
1680104309761055506,0.088
1680104309768751616,0.1
1680104309776447726,0.082
1680104309784143836,0.094
1680104309791839952,0.115
1680104309799536340,0.115
1680104309807232728,0.096
1680104309814929116,0.09
1680104309822625504,0.088
1680104309830321892,0.054
1680104309838018280,0.018000000000000002
1680104309845714668,0.018000000000000002
1680104309853411056,0.014
1680104309861107444,-0.018000000000000002
1680104309868803832,-0.07100000000000001
1680104309876500220,-0.096
1680104309884196608,-0.077
1680104309891892996,-0.077
1680104309899589384,-0.105
1680104309907285772,-0.094
1680104309914982160,-0.052000000000000005
1680104309922678548,-0.033
1680104309930374936,-0.029
1680104309938071324,-0.008
1680104309945767712,0.014
1680104309953464100,0.021
1680104309961160488,0.023
1680104309968856876,0.044
1680104309976553264,0.075
1680104309984249652,0.098
1680104309991946040,0.107
1680104309999642428,0.132
1680104310007338816,0.176
1680104310015035204,0.201
1680104310022731592,0.212
1680104310030427980,0.233
1680104310038124368,0.244
1680104310045820756,0.233
1680104310053517144,0.233,,768
1680104310061213532,0.254
1680104310068909920,0.252
1680104310076606308,0.193
1680104310084302696,0.109
1680104310091999084,0.063
1680104310099695472,0.065
1680104310107391860,0.067
1680104310115088248,0.063
1680104310122784636,0.077
1680104310130481024,0.082
1680104310138177412,0.075
1680104310145873800,0.09
1680104310153570188,0.117
1680104310161266576,0.132
1680104310168962964,0.13
1680104310176659352,0.132
1680104310184355740,0.151
1680104310192052128,0.17400000000000002
1680104310199748516,0.178
1680104310207444904,0.185
1680104310215141292,0.20600000000000002
1680104310222837680,0.214
1680104310230534068,0.201
1680104310238230456,0.21
1680104310245926844,0.23700000000000002
1680104310253623232,0.244
1680104310261319620,0.23700000000000002
1680104310269016008,0.229
1680104310276712396,0.20600000000000002
1680104310284408784,0.178
1680104310292105172,0.17200000000000001
1680104310299801560,0.183
1680104310307497948,0.18
1680104310315194336,0.136
1680104310322890724,0.054
1680104310330587112,-0.002
1680104310338283500,-0.039
1680104310345979888,-0.09
1680104310353676332,-0.098,79
1680104310361372372,-0.061
1680104310369068412,-0.048
1680104310376764452,-0.067
1680104310384460492,-0.063
1680104310392156532,-0.042
1680104310399852572,-0.056
1680104310407548612,-0.122
1680104310415244652,-0.159
1680104310422940692,-0.128
1680104310430636732,-0.132
1680104310438332772,-0.313
1680104310446028812,-0.719
1680104310453724852,-1.1440000000000001
1680104310461420892,-1.083
1680104310469116932,-0.307
1680104310476812972,0.42
1680104310484509012,0.342
1680104310492205052,-0.01
1680104310499901092,-0.031
1680104310507597132,0.035
1680104310515293172,0.016
1680104310522989212,0.025
1680104310530685252,0.05
1680104310538381292,0.044
1680104310546077332,0.046
1680104310553773372,0.063
1680104310561469412,0.063
1680104310569165452,0.044
1680104310576861492,0.039
1680104310584557532,0.035
1680104310592253572,-0.018000000000000002
1680104310599949612,-0.079
1680104310607645652,-0.077
1680104310615341692,-0.067
1680104310623037732,-0.075
1680104310630733772,-0.063
1680104310638429812,-0.054
1680104310646125852,-0.07100000000000001
1680104310653821892,-0.065
1680104310661517932,-0.035
1680104310669213972,-0.014
1680104310676910012,-0.016
1680104310684606052,-0.016
1680104310692302092,0.008
1680104310699998132,0.039
1680104310707694172,0.052000000000000005
1680104310715390212,0.067
1680104310723086252,0.09
1680104310730782292,0.09
1680104310738478332,0.08600000000000001
1680104310746174372,0.113
1680104310753870412,0.157
1680104310761566452,0.191
1680104310769262492,0.21
1680104310776958532,0.222
1680104310784654572,0.23900000000000002
1680104310792350612,0.25
1680104310800046652,0.248
1680104310807742692,0.23500000000000001,,758
1680104310815438732,0.20800000000000002
1680104310823134772,0.17
1680104310830830812,0.151
1680104310838526852,0.155
1680104310846222892,0.17
1680104310853918932,0.17400000000000002
1680104310861614972,0.166
1680104310869311012,0.159
1680104310877007052,0.168
1680104310884703092,0.176
1680104310892399132,0.183
1680104310900095172,0.195
1680104310907791212,0.21
1680104310915487280,0.20600000000000002
1680104310923183320,0.199
1680104310930879360,0.218
1680104310938575400,0.241
1680104310946271440,0.248
1680104310953967480,0.244
1680104310961663520,0.244
1680104310969359560,0.23900000000000002
1680104310977055600,0.201
1680104310984751640,0.159
1680104310992447680,0.17200000000000001
1680104311000143720,0.191
1680104311007839760,0.166
1680104311015535800,0.151
1680104311023231840,0.17200000000000001
1680104311030927880,0.161
1680104311038623920,0.117
1680104311046319960,0.107
1680104311054016000,0.092
1680104311061712040,0.035
1680104311069408080,-0.021
1680104311077104120,-0.046
1680104311084800160,-0.065
1680104311092496200,-0.124
1680104311100192240,-0.21
1680104311107888280,-0.25
1680104311115584320,-0.252
1680104311123280360,-0.275
1680104311130976400,-0.302
1680104311138672440,-0.3
1680104311146368480,-0.271
1680104311154064520,-0.23500000000000001
1680104311161760560,-0.22
1680104311169456600,-0.20800000000000002
1680104311177152640,-0.178
1680104311184848680,-0.17
1680104311192544720,-0.185
1680104311200240760,-0.17
1680104311207936800,-0.136
1680104311215632840,-0.113
1680104311223328880,-0.147
1680104311231024920,-0.366
1680104311238720960,-0.8240000000000001
1680104311246417000,-1.205
1680104311254113040,-0.9380000000000001
1680104311261809080,-0.042
1680104311269505120,0.504
1680104311277201160,0.246
1680104311284897200,-0.035
1680104311292593240,0.052000000000000005
1680104311300289280,0.107
1680104311307985320,0.025
1680104311315681360,0.027
1680104311323377400,0.07100000000000001
1680104311331073440,0.054
1680104311338769480,0.039
1680104311346465520,0.063
1680104311354161560,0.079
1680104311361857600,0.088
1680104311369553640,0.088
1680104311377249680,0.082
1680104311384945720,0.088
1680104311392641760,0.1
1680104311400337800,0.10300000000000001
1680104311408033840,0.109
1680104311415729880,0.124
1680104311423425920,0.117
1680104311431121960,0.10300000000000001
1680104311438818000,0.111
1680104311446514040,0.132
1680104311454210080,0.138
1680104311461906120,0.14
1680104311469602160,0.145
1680104311477298228,0.155,79
1680104311484994616,0.164
1680104311492691004,0.176
1680104311500387392,0.201
1680104311508083780,0.212
1680104311515780168,0.161
1680104311523476556,0.096
1680104311531172944,0.10300000000000001
1680104311538869332,0.14300000000000002
1680104311546565720,0.151
1680104311554262108,0.134
1680104311561958496,0.132,,748
1680104311569654884,0.153
1680104311577351272,0.161
1680104311585047660,0.164
1680104311592744048,0.155
1680104311600440436,0.098
1680104311608136824,0.033
1680104311615833212,0.029
1680104311623529600,0.052000000000000005
1680104311631225988,0.056
1680104311638922376,0.052000000000000005
1680104311646618764,0.058
1680104311654315152,0.063
1680104311662011540,0.065
1680104311669707928,0.075
1680104311677404316,0.088
1680104311685100704,0.107
1680104311692797092,0.122
1680104311700493480,0.115
1680104311708189868,0.117
1680104311715886256,0.14300000000000002
1680104311723582644,0.161
1680104311731279032,0.166
1680104311738975420,0.18
1680104311746671808,0.191
1680104311754368196,0.187
1680104311762064584,0.193
1680104311769760972,0.21
1680104311777457360,0.20800000000000002
1680104311785153748,0.164
1680104311792850136,0.105
1680104311800546524,0.061
1680104311808242912,0.039
1680104311815939300,0.023
1680104311823635688,-0.01
1680104311831332076,-0.037
1680104311839028464,-0.075
1680104311846724852,-0.124
1680104311854421240,-0.138
1680104311862117628,-0.11900000000000001
1680104311869814016,-0.115
1680104311877510404,-0.13
1680104311885206792,-0.14300000000000002
1680104311892903180,-0.13
1680104311900599568,-0.117
1680104311908295956,-0.11900000000000001
1680104311915992344,-0.109
1680104311923688732,-0.094
1680104311931385120,-0.096
1680104311939081508,-0.094
1680104311946777896,-0.07100000000000001
1680104311954474284,-0.044
1680104311962170672,-0.042
1680104311969867060,-0.058
1680104311977563448,-0.075
1680104311985259836,-0.079
1680104311992956224,-0.067
1680104312000652612,-0.025
1680104312008349000,0.025
1680104312016045388,0.046
1680104312023741776,0.039
1680104312031438164,0.037
1680104312039134606,0.039
1680104312046830716,0.021
1680104312054526826,0.002
1680104312062222936,0.01
1680104312069919046,0.018000000000000002
1680104312077615156,-0.07100000000000001
1680104312085311266,-0.418
1680104312093007376,-0.9520000000000001
1680104312100703486,-1.245
1680104312108399596,-0.8220000000000001
1680104312116095706,0.039
1680104312123791816,0.317
1680104312131487926,-0.035
1680104312139184036,-0.164
1680104312146880146,-0.039
1680104312154576256,-0.046
1680104312162272366,-0.075
1680104312169968476,-0.033
1680104312177664586,-0.018000000000000002
1680104312185360696,-0.023
1680104312193056806,0.01
1680104312200752916,0.029
1680104312208449026,0.014
1680104312216145136,0.018000000000000002
1680104312223841246,0.05
1680104312231537356,0.067
1680104312239233466,0.067
1680104312246929576,0.073
1680104312254625686,0.08600000000000001
1680104312262321796,0.08600000000000001
1680104312270017906,0.08600000000000001
1680104312277714016,0.1
1680104312285410126,0.098
1680104312293106236,0.056
1680104312300802346,0.014
1680104312308498456,0.021,,747
1680104312316194566,0.046
1680104312323890676,0.052000000000000005
1680104312331586786,0.061
1680104312339282896,0.082
1680104312346979006,0.10300000000000001
1680104312354675116,0.109
1680104312362371226,0.117
1680104312370067336,0.138
1680104312377763446,0.164
1680104312385459556,0.17
1680104312393155666,0.168
1680104312400851776,0.187
1680104312408547886,0.229
1680104312416243996,0.256
1680104312423940106,0.271
1680104312431636216,0.294
1680104312439332326,0.305
1680104312447028436,0.296
1680104312454724546,0.298
1680104312462420656,0.321
1680104312470116766,0.332
1680104312477812876,0.321
1680104312485508986,0.307
1680104312493205096,0.311
1680104312500901206,0.319
1680104312508597316,0.317
1680104312516293426,0.317
1680104312523989536,0.313
1680104312531685646,0.262
1680104312539381756,0.199
1680104312547077866,0.185
1680104312554773976,0.199
1680104312562470086,0.191
1680104312570166196,0.145
1680104312577862306,0.105
1680104312585558416,0.075
1680104312593254526,0.039
1680104312600950642,-0.012,80
1680104312608646682,-0.073
1680104312616342722,-0.128
1680104312624038762,-0.187
1680104312631734802,-0.244
1680104312639430842,-0.25
1680104312647126882,-0.229
1680104312654822922,-0.233
1680104312662518962,-0.23900000000000002
1680104312670215002,-0.229
1680104312677911042,-0.218
1680104312685607082,-0.214
1680104312693303122,-0.20400000000000001
1680104312700999162,-0.17400000000000002
1680104312708695202,-0.153
1680104312716391242,-0.157
1680104312724087282,-0.155
1680104312731783322,-0.126
1680104312739479362,-0.1
1680104312747175402,-0.092
1680104312754871442,-0.079
1680104312762567482,-0.063
1680104312770263522,-0.048
1680104312777959562,-0.042
1680104312785655602,-0.058
1680104312793351642,-0.061
1680104312801047682,-0.044
1680104312808743722,-0.054
1680104312816439762,-0.054
1680104312824135802,-0.018000000000000002
1680104312831831842,0.0
1680104312839527882,0.0
1680104312847223922,0.016
1680104312854919962,0.035
1680104312862616002,0.042
1680104312870312042,0.05
1680104312878008082,0.058
1680104312885704122,0.063
1680104312893400162,0.061
1680104312901096202,0.042
1680104312908792242,0.058
1680104312916488282,0.124
1680104312924184322,0.166
1680104312931880362,0.161
1680104312939576402,0.17400000000000002
1680104312947272442,0.195
1680104312954968482,0.191
1680104312962664522,0.191
1680104312970360562,0.218
1680104312978056602,0.252
1680104312985752642,0.22
1680104312993448682,-0.008
1680104313001144722,-0.454
1680104313008840762,-0.833
1680104313016536802,-0.645
1680104313024232842,0.17200000000000001
1680104313031928882,0.719
1680104313039624922,0.467
1680104313047320962,0.166
1680104313055017002,0.241,,748
1680104313062713042,0.3
1680104313070409082,0.25
1680104313078105122,0.252
1680104313085801162,0.262
1680104313093497202,0.25
1680104313101193242,0.262
1680104313108889282,0.271
1680104313116585322,0.218
1680104313124281362,0.157
1680104313131977402,0.138
1680104313139673442,0.13
1680104313147369482,0.126
1680104313155065522,0.14
1680104313162761592,0.149
1680104313170458050,0.134
1680104313178154508,0.122
1680104313185850966,0.13
1680104313193547424,0.136
1680104313201243882,0.13
1680104313208940340,0.138
1680104313216636798,0.145
1680104313224333256,0.098
1680104313232029714,0.037
1680104313239726172,0.037
1680104313247422630,0.07100000000000001
1680104313255119088,0.073
1680104313262815546,0.063
1680104313270512004,0.05
1680104313278208462,-0.002
1680104313285904920,-0.048
1680104313293601378,-0.039
1680104313301297836,-0.018000000000000002
1680104313308994294,-0.016
1680104313316690752,-0.033
1680104313324387210,-0.046
1680104313332083668,-0.044
1680104313339780126,-0.054
1680104313347476584,-0.073
1680104313355173042,-0.075
1680104313362869500,-0.075
1680104313370565958,-0.08600000000000001
1680104313378262416,-0.09
1680104313385958874,-0.082
1680104313393655332,-0.073
1680104313401351790,-0.073
1680104313409048248,-0.08600000000000001
1680104313416744706,-0.088
1680104313424441164,-0.069
1680104313432137622,-0.054
1680104313439834080,-0.052000000000000005
1680104313447530538,-0.046
1680104313455226996,-0.033
1680104313462923454,-0.033
1680104313470619912,-0.031
1680104313478316370,-0.008
1680104313486012828,0.018000000000000002
1680104313493709286,0.027
1680104313501405744,0.018000000000000002
1680104313509102202,0.025
1680104313516798660,0.035
1680104313524495118,0.008
1680104313532191576,-0.014
1680104313539888034,0.0
1680104313547584492,0.012
1680104313555280950,0.01
1680104313562977408,0.018000000000000002
1680104313570673866,0.042
1680104313578370324,0.065
1680104313586066782,0.07100000000000001
1680104313593763240,0.061
1680104313601459698,0.075
1680104313609156156,0.109
1680104313616852614,0.113
1680104313624549072,0.073
1680104313632245530,0.033
1680104313639941988,0.025
1680104313647638446,0.025
1680104313655334904,0.027
1680104313663031362,0.048
1680104313670727820,0.069
1680104313678424278,0.075
1680104313686120736,0.075
1680104313693817194,0.08600000000000001
1680104313701513652,0.10300000000000001
1680104313709210110,0.115
1680104313716906568,0.13
1680104313724603058,0.147,79
1680104313732299098,0.147
1680104313739995138,0.14300000000000002
1680104313747691178,0.161
1680104313755387218,0.185
1680104313763083258,0.189
1680104313770779298,0.166
1680104313778475338,0.145
1680104313786171378,0.13
1680104313793867418,0.079
1680104313801563458,0.002
1680104313809259498,-0.023
1680104313816955538,-0.006
1680104313824651578,0.006,,767
1680104313832347618,0.027
1680104313840043658,0.056
1680104313847739698,0.073
1680104313855435738,0.082
1680104313863131778,0.088
1680104313870827818,0.092
1680104313878523858,0.1
1680104313886219898,0.11900000000000001
1680104313893915938,0.138
1680104313901611978,0.075
1680104313909308018,-0.227
1680104313917004058,-0.721
1680104313924700098,-0.9520000000000001
1680104313932396138,-0.443
1680104313940092178,0.441
1680104313947788218,0.687
1680104313955484258,0.334
1680104313963180298,0.201
1680104313970876338,0.311
1680104313978572378,0.302
1680104313986268418,0.265
1680104313993964458,0.307
1680104314001660498,0.323
1680104314009356538,0.28800000000000003
1680104314017052578,0.248
1680104314024748618,0.23700000000000002
1680104314032444658,0.241
1680104314040140698,0.216
1680104314047836738,0.17
1680104314055532778,0.147
1680104314063228818,0.132
1680104314070924858,0.111
1680104314078620898,0.09
1680104314086316938,0.063
1680104314094012978,0.027
1680104314101709018,-0.025
1680104314109405058,-0.073
1680104314117101098,-0.079
1680104314124797138,-0.107
1680104314132493178,-0.178
1680104314140189218,-0.216
1680104314147885258,-0.216
1680104314155581298,-0.229
1680104314163277338,-0.227
1680104314170973378,-0.197
1680104314178669418,-0.178
1680104314186365458,-0.18
1680104314194061498,-0.191
1680104314201757538,-0.176
1680104314209453578,-0.147
1680104314217149618,-0.13
1680104314224845658,-0.105
1680104314232541698,-0.063
1680104314240237738,-0.039
1680104314247933778,-0.037
1680104314255629818,-0.031
1680104314263325858,-0.037
1680104314271021898,-0.048
1680104314278717938,-0.046
1680104314286414006,-0.044,79
1680104314294110046,-0.037
1680104314301806086,-0.023
1680104314309502126,-0.016
1680104314317198166,-0.006
1680104314324894206,0.01
1680104314332590246,-0.016
1680104314340286286,-0.077
1680104314347982326,-0.08600000000000001
1680104314355678366,-0.05
1680104314363374406,-0.035
1680104314371070446,-0.042
1680104314378766486,-0.035
1680104314386462526,-0.018000000000000002
1680104314394158566,-0.004
1680104314401854606,0.01
1680104314409550646,0.033
1680104314417246686,0.054
1680104314424942726,0.052000000000000005
1680104314432638766,0.05
1680104314440334806,0.082
1680104314448030846,0.124
1680104314455726886,0.136
1680104314463422926,0.134
1680104314471118966,0.14300000000000002
1680104314478815006,0.155
1680104314486511046,0.161
1680104314494207086,0.17
1680104314501903126,0.17400000000000002
1680104314509599166,0.145
1680104314517295206,0.109
1680104314524991246,0.111
1680104314532687286,0.134
1680104314540383326,0.147
1680104314548079366,0.149
1680104314555775406,0.161
1680104314563471446,0.17200000000000001
1680104314571167486,0.17
1680104314578863526,0.17200000000000001
1680104314586559566,0.189
1680104314594255606,0.212
1680104314601951646,0.218
1680104314609647686,0.20800000000000002,,791
1680104314617343726,0.201
1680104314625039766,0.193
1680104314632735806,0.14300000000000002
1680104314640431846,0.092
1680104314648127886,0.096
1680104314655823926,0.109
1680104314663519966,0.10300000000000001
1680104314671216006,0.1
1680104314678912046,0.122
1680104314686608086,0.14300000000000002
1680104314694304126,0.126
1680104314702000166,0.094
1680104314709696206,0.09
1680104314717392246,0.107
1680104314725088286,0.13
1680104314732784326,0.168
1680104314740480366,0.197
1680104314748176406,0.18
1680104314755872446,0.138
1680104314763568486,0.124
1680104314771264526,0.138
1680104314778960566,0.145
1680104314786656606,0.122
1680104314794352646,0.105
1680104314802048686,0.096
1680104314809744726,-0.079
1680104314817440766,-0.528
1680104314825136806,-0.9520000000000001
1680104314832832846,-0.8280000000000001
1680104314840528886,-0.054
1680104314848224954,0.555
1680104314855921412,0.393
1680104314863617870,0.079
1680104314871314328,0.094
1680104314879010786,0.111
1680104314886707244,0.016
1680104314894403702,-0.018000000000000002
1680104314902100160,-0.044
1680104314909796618,-0.126
1680104314917493076,-0.17
1680104314925189534,-0.159
1680104314932885992,-0.183
1680104314940582450,-0.214
1680104314948278908,-0.197
1680104314955975366,-0.178
1680104314963671824,-0.187
1680104314971368282,-0.199
1680104314979064740,-0.199
1680104314986761198,-0.191
1680104314994457656,-0.193
1680104315002154114,-0.214
1680104315009850572,-0.22
1680104315017547030,-0.20600000000000002
1680104315025243488,-0.21
1680104315032939946,-0.227
1680104315040636404,-0.20400000000000001
1680104315048332862,-0.17
1680104315056029320,-0.159
1680104315063725778,-0.153
1680104315071422236,-0.13
1680104315079118694,-0.109
1680104315086815152,-0.096
1680104315094511610,-0.077
1680104315102208068,-0.044
1680104315109904526,-0.025
1680104315117600984,-0.029
1680104315125297442,-0.042
1680104315132993900,-0.061
1680104315140690358,-0.067
1680104315148386816,-0.042
1680104315156083274,-0.018000000000000002
1680104315163779732,-0.002
1680104315171476190,0.018000000000000002
1680104315179172648,0.035
1680104315186869106,0.048
1680104315194565564,0.069
1680104315202262022,0.079
1680104315209958480,0.073
1680104315217654938,0.075
1680104315225351396,0.1
1680104315233047854,0.126
1680104315240744312,0.126
1680104315248440770,0.1
1680104315256137228,0.084
1680104315263833686,0.094
1680104315271530144,0.10300000000000001
1680104315279226602,0.113
1680104315286923060,0.134
1680104315294619518,0.147
1680104315302315976,0.14300000000000002
1680104315310012434,0.151
1680104315317708892,0.17400000000000002
1680104315325405350,0.187
1680104315333101808,0.193
1680104315340798266,0.214
1680104315348494724,0.229
1680104315356191182,0.22
1680104315363887640,0.222
1680104315371584098,0.252
1680104315379280556,0.275
1680104315386977014,0.273
1680104315394673472,0.262
1680104315402369930,0.271
1680104315410066420,0.292,79
1680104315417762460,0.294
1680104315425458500,0.294
1680104315433154540,0.309
1680104315440850580,0.294
1680104315448546620,0.23500000000000001
1680104315456242660,0.201
1680104315463938700,0.222,,853
1680104315471634740,0.233
1680104315479330780,0.21
1680104315487026820,0.183
1680104315494722860,0.151
1680104315502418900,0.132
1680104315510114940,0.13
1680104315517810980,0.136
1680104315525507020,0.149
1680104315533203060,0.151
1680104315540899100,0.14300000000000002
1680104315548595140,0.151
1680104315556291180,0.176
1680104315563987220,0.191
1680104315571683260,0.193
1680104315579379300,0.185
1680104315587075340,0.17400000000000002
1680104315594771380,0.164
1680104315602467420,0.147
1680104315610163460,0.159
1680104315617859500,0.214
1680104315625555540,0.248
1680104315633251580,0.20800000000000002
1680104315640947620,0.147
1680104315648643660,0.14300000000000002
1680104315656339700,0.157
1680104315664035740,0.147
1680104315671731780,0.14
1680104315679427820,0.14300000000000002
1680104315687123860,0.115
1680104315694819900,-0.027
1680104315702515940,-0.38
1680104315710211980,-0.845
1680104315717908020,-0.988
1680104315725604060,-0.406
1680104315733300100,0.391
1680104315740996140,0.431
1680104315748692180,-0.012
1680104315756388220,-0.124
1680104315764084260,-0.044
1680104315771780300,-0.09
1680104315779476340,-0.132
1680104315787172380,-0.107
1680104315794868420,-0.1
1680104315802564460,-0.11900000000000001
1680104315810260500,-0.136
1680104315817956540,-0.138
1680104315825652580,-0.124
1680104315833348620,-0.117
1680104315841044660,-0.124
1680104315848740700,-0.117
1680104315856436740,-0.111
1680104315864132780,-0.11900000000000001
1680104315871828820,-0.122
1680104315879524860,-0.107
1680104315887220900,-0.092
1680104315894916940,-0.09
1680104315902612980,-0.096
1680104315910309020,-0.092
1680104315918005060,-0.075
1680104315925701100,-0.065
1680104315933397140,-0.058
1680104315941093180,-0.044
1680104315948789220,-0.033
1680104315956485260,-0.033
1680104315964181300,-0.018000000000000002
1680104315971877368,0.012
1680104315979573408,0.027
1680104315987269448,0.004
1680104315994965488,-0.016
1680104316002661528,0.004
1680104316010357568,0.025
1680104316018053608,0.004
1680104316025749648,-0.002
1680104316033445688,0.035
1680104316041141728,0.054
1680104316048837768,0.046
1680104316056533808,0.061
1680104316064229848,0.094
1680104316071925888,0.113
1680104316079621928,0.113
1680104316087317968,0.111
1680104316095014008,0.11900000000000001
1680104316102710048,0.132
1680104316110406088,0.134
1680104316118102128,0.147
1680104316125798168,0.161
1680104316133494208,0.128
1680104316141190248,0.063
1680104316148886288,0.052000000000000005
1680104316156582328,0.082
1680104316164278368,0.09
1680104316171974408,0.077
1680104316179670448,0.084
1680104316187366488,0.107
1680104316195062528,0.115
1680104316202758568,0.117
1680104316210454608,0.14
1680104316218150648,0.166
1680104316225846688,0.157
1680104316233542728,0.124
1680104316241238768,0.122
1680104316248934808,0.149
1680104316256630848,0.161
1680104316264326888,0.153
1680104316272022928,0.155
1680104316279718968,0.17200000000000001
1680104316287415008,0.18
1680104316295111048,0.185
1680104316302807088,0.20600000000000002
1680104316310503128,0.22
1680104316318199168,0.20800000000000002
1680104316325895208,0.21
1680104316333591248,0.23500000000000001
1680104316341287288,0.25
1680104316348983328,0.252
1680104316356679368,0.256
1680104316364375408,0.262
1680104316372071448,0.262,,910
1680104316379767488,0.26
1680104316387463528,0.271
1680104316395159568,0.296
1680104316402855608,0.3
1680104316410551648,0.281
1680104316418247688,0.277
1680104316425943728,0.296
1680104316433639768,0.309
1680104316441335808,0.305
1680104316449031848,0.311
1680104316456727888,0.321
1680104316464423928,0.307
1680104316472119968,0.267
1680104316479816008,0.22
1680104316487512048,0.187
1680104316495208088,0.17200000000000001
1680104316502904128,0.176
1680104316510600168,0.212
1680104316518296208,0.23900000000000002
1680104316525992248,0.233
1680104316533688318,0.233,78
1680104316541384358,0.25
1680104316549080398,0.25
1680104316556776438,0.233
1680104316564472478,0.23500000000000001
1680104316572168518,0.262
1680104316579864558,0.23500000000000001
1680104316587560598,-0.023
1680104316595256638,-0.53
1680104316602952678,-0.915
1680104316610648718,-0.675
1680104316618344758,0.11900000000000001
1680104316626040798,0.582
1680104316633736838,0.279
1680104316641432878,-0.092
1680104316649128918,-0.111
1680104316656824958,-0.098
1680104316664520998,-0.168
1680104316672217038,-0.176
1680104316679913078,-0.17400000000000002
1680104316687609118,-0.21
1680104316695305158,-0.21
1680104316703001198,-0.197
1680104316710697238,-0.21
1680104316718393278,-0.229
1680104316726089318,-0.265
1680104316733785358,-0.302
1680104316741481398,-0.309
1680104316749177438,-0.29
1680104316756873478,-0.277
1680104316764569518,-0.273
1680104316772265558,-0.273
1680104316779961598,-0.273
1680104316787657638,-0.267
1680104316795353678,-0.262
1680104316803049718,-0.262
1680104316810745758,-0.246
1680104316818441798,-0.227
1680104316826137838,-0.233
1680104316833833878,-0.233
1680104316841529918,-0.199
1680104316849225958,-0.168
1680104316856921998,-0.151
1680104316864618038,-0.132
1680104316872314078,-0.113
1680104316880010118,-0.1
1680104316887706158,-0.08600000000000001
1680104316895402198,-0.052000000000000005
1680104316903098238,-0.006
1680104316910794278,0.031
1680104316918490318,0.048
1680104316926186358,0.07100000000000001
1680104316933882398,0.111
1680104316941578438,0.138
1680104316949274478,0.147
1680104316956970518,0.164
1680104316964666558,0.157
1680104316972362598,0.107
1680104316980058638,0.082
1680104316987754678,0.10300000000000001
1680104316995450718,0.117
1680104317003146758,0.109
1680104317010842798,0.1
1680104317018538838,0.107
1680104317026234878,0.126
1680104317033930918,0.138
1680104317041626958,0.14300000000000002
1680104317049322998,0.155
1680104317057019038,0.166
1680104317064715078,0.166
1680104317072411118,0.168
1680104317080107158,0.187
1680104317087803198,0.21
1680104317095499266,0.216
1680104317103195515,0.20800000000000002
1680104317110891764,0.21
1680104317118588013,0.23700000000000002
1680104317126284262,0.25
1680104317133980511,0.248
1680104317141676760,0.225
1680104317149373009,0.151
1680104317157069258,0.061
1680104317164765507,0.025
1680104317172461756,0.039
1680104317180158005,0.048
1680104317187854254,0.035
1680104317195550503,0.025
1680104317203246752,0.037
1680104317210943001,0.05
1680104317218639250,0.025
1680104317226335499,0.016
1680104317234031748,0.044
1680104317241727997,0.042
1680104317249424246,0.027
1680104317257120495,0.048
1680104317264816744,0.075
1680104317272512993,0.088
1680104317280209242,0.09
1680104317287905491,0.094,,913
1680104317295601740,0.109
1680104317303297989,0.122
1680104317310994238,0.128
1680104317318690487,0.149
1680104317326386736,0.17400000000000002
1680104317334082985,0.17
1680104317341779234,0.147
1680104317349475483,0.145
1680104317357171732,0.155
1680104317364867981,0.145
1680104317372564230,0.138
1680104317380260479,0.18
1680104317387956728,0.227
1680104317395652977,0.231
1680104317403349226,0.231
1680104317411045475,0.254
1680104317418741724,0.269
1680104317426437973,0.254
1680104317434134222,0.244
1680104317441830471,0.265
1680104317449526720,0.28600000000000003
1680104317457222969,0.17400000000000002
1680104317464919218,-0.20600000000000002
1680104317472615467,-0.704
1680104317480311716,-0.862
1680104317488007965,-0.296
1680104317495704214,0.542
1680104317503400463,0.6980000000000001
1680104317511096712,0.302
1680104317518792961,0.159
1680104317526489210,0.244
1680104317534185459,0.229
1680104317541881708,0.189
1680104317549577957,0.178
1680104317557274206,0.138
1680104317564970455,0.088
1680104317572666704,0.044
1680104317580362953,0.004
1680104317588059202,-0.006
1680104317595755451,0.0
1680104317603451700,-0.014
1680104317611147949,-0.048
1680104317618844198,-0.063
1680104317626540447,-0.05
1680104317634236696,-0.052000000000000005
1680104317641932945,-0.069
1680104317649629194,-0.10300000000000001
1680104317657325472,-0.17400000000000002,75
1680104317665021721,-0.231
1680104317672717970,-0.229
1680104317680414219,-0.214
1680104317688110468,-0.21
1680104317695806717,-0.22
1680104317703502966,-0.256
1680104317711199215,-0.28800000000000003
1680104317718895464,-0.292
1680104317726591713,-0.317
1680104317734287962,-0.34700000000000003
1680104317741984211,-0.33
1680104317749680460,-0.313
1680104317757376709,-0.323
1680104317765072958,-0.302
1680104317772769207,-0.248
1680104317780465456,-0.20800000000000002
1680104317788161705,-0.191
1680104317795857954,-0.168
1680104317803554203,-0.132
1680104317811250452,-0.1
1680104317818946701,-0.082
1680104317826642950,-0.061
1680104317834339199,-0.035
1680104317842035448,-0.029
1680104317849731697,-0.033
1680104317857427946,-0.014
1680104317865124195,0.016
1680104317872820444,0.027
1680104317880516693,0.027
1680104317888212942,0.037
1680104317895909191,0.056
1680104317903605440,0.065
1680104317911301689,0.07100000000000001
1680104317918997938,0.096
1680104317926694187,0.117
1680104317934390436,0.117
1680104317942086685,0.113
1680104317949782934,0.111
1680104317957479183,0.092
1680104317965175432,0.075
1680104317972871681,0.079
1680104317980567930,0.09
1680104317988264179,0.1
1680104317995960428,0.109
1680104318003656677,0.117
1680104318011352926,0.14300000000000002
1680104318019049175,0.166
1680104318026745424,0.157
1680104318034441673,0.153
1680104318042137922,0.178
1680104318049834171,0.201
1680104318057530420,0.20400000000000001
1680104318065226669,0.20800000000000002
1680104318072922918,0.218
1680104318080619167,0.227
1680104318088315416,0.227
1680104318096011665,0.233
1680104318103707914,0.256
1680104318111404163,0.273
1680104318119100412,0.26
1680104318126796661,0.254
1680104318134492910,0.275
1680104318142189159,0.29
1680104318149885408,0.28300000000000003
1680104318157581657,0.248
1680104318165277906,0.183
1680104318172974155,0.147
1680104318180670404,0.149
1680104318188366653,0.136,,904
1680104318196062902,0.1
1680104318203759151,0.044
1680104318211455400,0.002
1680104318219151680,0.023,75
1680104318226848138,0.079
1680104318234544596,0.098
1680104318242241054,0.094
1680104318249937512,0.107
1680104318257633970,0.113
1680104318265330428,0.07100000000000001
1680104318273026886,0.025
1680104318280723344,0.031
1680104318288419802,0.069
1680104318296116260,0.033
1680104318303812718,-0.185
1680104318311509176,-0.61
1680104318319205634,-1.0010000000000001
1680104318326902092,-0.858
1680104318334598550,-0.039
1680104318342295008,0.601
1680104318349991466,0.429
1680104318357687924,0.10300000000000001
1680104318365384382,0.155
1680104318373080840,0.23900000000000002
1680104318380777298,0.195
1680104318388473756,0.191
1680104318396170214,0.212
1680104318403866672,0.195
1680104318411563130,0.17200000000000001
1680104318419259588,0.151
1680104318426956046,0.134
1680104318434652504,0.136
1680104318442348962,0.111
1680104318450045420,0.044
1680104318457741878,-0.006
1680104318465438336,-0.018000000000000002
1680104318473134794,-0.056
1680104318480831252,-0.113
1680104318488527710,-0.136
1680104318496224168,-0.14
1680104318503920626,-0.155
1680104318511617084,-0.17
1680104318519313542,-0.164
1680104318527010000,-0.159
1680104318534706458,-0.18
1680104318542402916,-0.191
1680104318550099374,-0.17
1680104318557795832,-0.147
1680104318565492290,-0.14
1680104318573188748,-0.132
1680104318580885206,-0.117
1680104318588581664,-0.105
1680104318596278122,-0.094
1680104318603974580,-0.084
1680104318611671038,-0.056
1680104318619367496,-0.018000000000000002
1680104318627063954,-0.002
1680104318634760412,0.01
1680104318642456870,0.048
1680104318650153328,0.088
1680104318657849786,0.077
1680104318665546244,0.027
1680104318673242702,0.002
1680104318680939160,0.018000000000000002
1680104318688635618,0.016
1680104318696332076,-0.018000000000000002
1680104318704028534,-0.025
1680104318711724992,-0.008
1680104318719421450,-0.023
1680104318727117908,-0.027
1680104318734814366,0.004
1680104318742510824,0.023
1680104318750207282,0.021
1680104318757903740,0.033
1680104318765600198,0.046
1680104318773296656,0.044
1680104318780993146,0.044
1680104318788689604,0.058
1680104318796386062,0.088
1680104318804082520,0.098
1680104318811778978,0.077
1680104318819475436,0.084
1680104318827171894,0.115
1680104318834868352,0.098
1680104318842564810,0.048
1680104318850261268,0.044
1680104318857957726,0.056
1680104318865654184,0.044
1680104318873350642,0.044
1680104318881047100,0.075
1680104318888743558,0.098
1680104318896440016,0.094
1680104318904136474,0.09
1680104318911832932,0.105
1680104318919529390,0.126
1680104318927225848,0.134
1680104318934922306,0.128
1680104318942618764,0.098
1680104318950315222,0.07100000000000001
1680104318958011680,0.069
1680104318965708138,0.079
1680104318973404596,0.096
1680104318981101054,0.115
1680104318988797512,0.11900000000000001
1680104318996493970,0.11900000000000001
1680104319004190428,0.134
1680104319011886886,0.14
1680104319019583344,0.124
1680104319027279802,0.117
1680104319034976260,0.124
1680104319042672718,0.115
1680104319050369176,0.134
1680104319058065634,0.191
1680104319065762092,0.216
1680104319073458550,0.212
1680104319081155008,0.218,,888
1680104319088851466,0.225
1680104319096547924,0.23700000000000002
1680104319104244382,0.248
1680104319111940840,0.246
1680104319119637298,0.262
1680104319127333756,0.22
1680104319135030214,-0.07100000000000001
1680104319142726672,-0.559
1680104319150423130,-0.833
1680104319158119588,-0.458
1680104319165816046,0.336
1680104319173512504,0.668
1680104319181208962,0.355
1680104319188905420,0.088
1680104319196601878,0.096
1680104319204298336,0.115
1680104319211994794,0.1
1680104319219691252,0.111
1680104319227387710,0.10300000000000001
1680104319235084168,0.08600000000000001
1680104319242780626,0.105
1680104319250477084,0.126
1680104319258173542,0.122
1680104319265870000,0.117
1680104319273566458,0.122
1680104319281262916,0.11900000000000001
1680104319288959374,0.113
1680104319296655832,0.098
1680104319304352290,0.079
1680104319312048748,0.063
1680104319319745206,0.033
1680104319327441664,0.014
1680104319335138122,0.012
1680104319342834610,-0.016,74
1680104319350531068,-0.065
1680104319358227526,-0.1
1680104319365923984,-0.145
1680104319373620442,-0.21
1680104319381316900,-0.265
1680104319389013358,-0.273
1680104319396709816,-0.26
1680104319404406274,-0.296
1680104319412102732,-0.355
1680104319419799190,-0.359
1680104319427495648,-0.355
1680104319435192106,-0.395
1680104319442888564,-0.397
1680104319450585022,-0.34700000000000003
1680104319458281480,-0.319
1680104319465977938,-0.309
1680104319473674396,-0.269
1680104319481370854,-0.225
1680104319489067312,-0.199
1680104319496763770,-0.185
1680104319504460228,-0.178
1680104319512156686,-0.159
1680104319519853144,-0.134
1680104319527549602,-0.122
1680104319535246060,-0.109
1680104319542942518,-0.084
1680104319550638976,-0.073
1680104319558335434,-0.079
1680104319566031892,-0.065
1680104319573728350,-0.031
1680104319581424808,-0.01
1680104319589121266,-0.008
1680104319596817724,-0.002
1680104319604514182,0.021
1680104319612210640,0.039
1680104319619907098,0.05
1680104319627603556,0.069
1680104319635300014,0.096
1680104319642996472,0.1
1680104319650692930,0.096
1680104319658389388,0.117
1680104319666085846,0.122
1680104319673782304,0.061
1680104319681478762,-0.014
1680104319689175220,-0.029
1680104319696871678,-0.008
1680104319704568136,-0.002
1680104319712264594,-0.002
1680104319719961052,0.021
1680104319727657510,0.046
1680104319735353968,0.046
1680104319743050426,0.039
1680104319750746884,0.063
1680104319758443342,0.096
1680104319766139800,0.109
1680104319773836258,0.111
1680104319781532716,0.117
1680104319789229174,0.13
1680104319796925632,0.136
1680104319804622090,0.132
1680104319812318548,0.134
1680104319820015006,0.138
1680104319827711464,0.113
1680104319835407922,0.10300000000000001
1680104319843104380,0.157
1680104319850800838,0.216
1680104319858497296,0.22
1680104319866193754,0.22
1680104319873890212,0.23700000000000002
1680104319881586670,0.244
1680104319889283128,0.241
1680104319896979586,0.254
1680104319904676080,0.279
1680104319912372259,0.3
1680104319920068438,0.216
1680104319927764617,-0.11900000000000001
1680104319935460796,-0.62
1680104319943156975,-0.883
1680104319950853154,-0.452
1680104319958549333,0.435
1680104319966245512,0.769,,889
1680104319973941691,0.393
1680104319981637870,0.145
1680104319989334049,0.218
1680104319997030228,0.244
1680104320004726407,0.189
1680104320012422586,0.187
1680104320020118765,0.201
1680104320027814944,0.199
1680104320035511123,0.201
1680104320043207302,0.20800000000000002
1680104320050903481,0.21
1680104320058599660,0.21
1680104320066295839,0.201
1680104320073992018,0.197
1680104320081688197,0.21
1680104320089384376,0.222
1680104320097080555,0.216
1680104320104776734,0.197
1680104320112472913,0.197
1680104320120169092,0.21
1680104320127865271,0.20400000000000001
1680104320135561450,0.197
1680104320143257629,0.21
1680104320150953808,0.20600000000000002
1680104320158649987,0.183
1680104320166346166,0.168
1680104320174042345,0.134
1680104320181738524,0.07100000000000001
1680104320189434703,0.027
1680104320197130882,0.004
1680104320204827061,-0.004
1680104320212523240,0.0
1680104320220219419,-0.004
1680104320227915598,-0.016
1680104320235611777,-0.029
1680104320243307956,-0.048
1680104320251004135,-0.075
1680104320258700314,-0.073
1680104320266396493,-0.044
1680104320274092672,-0.039
1680104320281788851,-0.058
1680104320289485030,-0.061
1680104320297181209,-0.054
1680104320304877388,-0.054
1680104320312573567,-0.054
1680104320320269746,-0.046
1680104320327965925,-0.039
1680104320335662104,-0.054
1680104320343358283,-0.065
1680104320351054462,-0.044
1680104320358750641,-0.025
1680104320366446820,-0.025
1680104320374142999,-0.025
1680104320381839178,-0.016
1680104320389535357,-0.008
1680104320397231536,-0.002
1680104320404927715,0.006
1680104320412623894,0.008
1680104320420320073,-0.021
1680104320428016252,-0.056
1680104320435712431,-0.052000000000000005
1680104320443408610,-0.018000000000000002
1680104320451104789,0.0
1680104320458800968,0.004
1680104320466497200,0.018000000000000002,73
1680104320474193519,0.031
1680104320481889838,0.033
1680104320489586157,0.039
1680104320497282476,0.061
1680104320504978795,0.088
1680104320512675114,0.096
1680104320520371433,0.084
1680104320528067752,0.088
1680104320535764071,0.111
1680104320543460390,0.098
1680104320551156709,0.052000000000000005
1680104320558853028,0.039
1680104320566549347,0.058
1680104320574245666,0.052000000000000005
1680104320581941985,0.05
1680104320589638304,0.077
1680104320597334623,0.096
1680104320605030942,0.073
1680104320612727261,0.046
1680104320620423580,0.046
1680104320628119899,0.065
1680104320635816218,0.1
1680104320643512537,0.145
1680104320651208856,0.168
1680104320658905175,0.149
1680104320666601494,0.105
1680104320674297813,0.058
1680104320681994132,0.008
1680104320689690451,-0.025
1680104320697386770,-0.025
1680104320705083089,-0.018000000000000002
1680104320712779408,-0.073
1680104320720475727,-0.328
1680104320728172046,-0.799
1680104320735868365,-1.117
1680104320743564684,-0.751
1680104320751261003,0.14300000000000002
1680104320758957322,0.5630000000000001
1680104320766653641,0.26
1680104320774349960,0.061
1680104320782046279,0.17
1680104320789742598,0.178
1680104320797438917,0.111
1680104320805135236,0.14300000000000002
1680104320812831555,0.176
1680104320820527874,0.153
1680104320828224193,0.155
1680104320835920512,0.185
1680104320843616831,0.17400000000000002,,874
1680104320851313150,0.151
1680104320859009469,0.168
1680104320866705788,0.195
1680104320874402107,0.191
1680104320882098426,0.176
1680104320889794745,0.178
1680104320897491064,0.187
1680104320905187383,0.178
1680104320912883702,0.151
1680104320920580021,0.138
1680104320928276340,0.147
1680104320935972659,0.132
1680104320943668978,0.117
1680104320951365297,0.13
1680104320959061616,0.145
1680104320966757935,0.138
1680104320974454254,0.136
1680104320982150573,0.151
1680104320989846892,0.166
1680104320997543211,0.178
1680104321005239530,0.189
1680104321012935849,0.20800000000000002
1680104321020632168,0.225
1680104321028328494,0.225
1680104321036024952,0.231
1680104321043721410,0.277
1680104321051417868,0.313
1680104321059114326,0.307
1680104321066810784,0.281
1680104321074507242,0.262
1680104321082203700,0.229
1680104321089900158,0.17400000000000002
1680104321097596616,0.128
1680104321105293074,0.10300000000000001
1680104321112989532,0.058
1680104321120685990,-0.006
1680104321128382448,-0.05
1680104321136078906,-0.056
1680104321143775364,-0.054
1680104321151471822,-0.079
1680104321159168280,-0.122
1680104321166864738,-0.147
1680104321174561196,-0.159
1680104321182257654,-0.199
1680104321189954112,-0.256
1680104321197650570,-0.277
1680104321205347028,-0.275
1680104321213043486,-0.28800000000000003
1680104321220739944,-0.28300000000000003
1680104321228436402,-0.252
1680104321236132860,-0.23900000000000002
1680104321243829318,-0.233
1680104321251525776,-0.20400000000000001
1680104321259222234,-0.187
1680104321266918692,-0.191
1680104321274615150,-0.17400000000000002
1680104321282311608,-0.134
1680104321290008066,-0.111
1680104321297704524,-0.105
1680104321305400982,-0.1
1680104321313097440,-0.08600000000000001
1680104321320793898,-0.063
1680104321328490356,-0.044
1680104321336186814,-0.025
1680104321343883272,-0.002
1680104321351579730,0.004
1680104321359276188,0.004
1680104321366972646,0.029
1680104321374669104,0.058
1680104321382365562,0.061
1680104321390062020,0.037
1680104321397758478,0.004
1680104321405454936,-0.031
1680104321413151394,-0.029
1680104321420847852,0.016
1680104321428544310,0.052000000000000005
1680104321436240768,0.063
1680104321443937226,0.063
1680104321451633684,0.063
1680104321459330142,0.082
1680104321467026600,0.113
1680104321474723058,0.126
1680104321482419516,0.13
1680104321490115974,0.13
1680104321497812432,-0.014
1680104321505508890,-0.429
1680104321513205348,-0.881
1680104321520901806,-0.835
1680104321528598264,-0.073
1680104321536294722,0.658
1680104321543991180,0.599
1680104321551687638,0.256
1680104321559384096,0.25
1680104321567080554,0.33
1680104321574777012,0.28800000000000003
1680104321582473470,0.273
1680104321590169960,0.298,73
1680104321597866348,0.29
1680104321605562736,0.28800000000000003
1680104321613259124,0.309
1680104321620955512,0.313
1680104321628651900,0.28800000000000003
1680104321636348288,0.275
1680104321644044676,0.275
1680104321651741064,0.22
1680104321659437452,0.128
1680104321667133840,0.08600000000000001
1680104321674830228,0.092
1680104321682526616,0.079
1680104321690223004,0.029,,844
1680104321697919392,-0.027
1680104321705615780,-0.039
1680104321713312168,-0.039
1680104321721008556,-0.065
1680104321728704944,-0.067
1680104321736401332,-0.039
1680104321744097720,-0.035
1680104321751794108,-0.037
1680104321759490496,-0.014
1680104321767186884,0.002
1680104321774883272,0.0
1680104321782579660,0.006
1680104321790276048,0.031
1680104321797972436,0.054
1680104321805668824,0.058
1680104321813365212,0.063
1680104321821061600,0.1
1680104321828757988,0.14300000000000002
1680104321836454376,0.161
1680104321844150764,0.185
1680104321851847152,0.212
1680104321859543540,0.214
1680104321867239928,0.20400000000000001
1680104321874936316,0.214
1680104321882632704,0.23500000000000001
1680104321890329092,0.233
1680104321898025480,0.195
1680104321905721868,0.147
1680104321913418256,0.117
1680104321921114644,0.107
1680104321928811032,0.096
1680104321936507420,0.094
1680104321944203808,0.084
1680104321951900196,0.042
1680104321959596584,-0.004
1680104321967292972,-0.037
1680104321974989360,-0.056
1680104321982685748,-0.056
1680104321990382136,-0.065
1680104321998078524,-0.082
1680104322005774912,-0.079
1680104322013471300,-0.07100000000000001
1680104322021167688,-0.075
1680104322028864076,-0.069
1680104322036560464,-0.048
1680104322044256852,-0.048
1680104322051953240,-0.067
1680104322059649628,-0.054
1680104322067346016,-0.025
1680104322075042404,-0.014
1680104322082738792,-0.016
1680104322090435180,-0.012
1680104322098131568,-0.004
1680104322105827956,0.006
1680104322113524344,0.023
1680104322121220732,0.042
1680104322128917120,0.037
1680104322136613508,0.008
1680104322144309896,-0.035
1680104322152006338,-0.048
1680104322159702448,-0.004
1680104322167398558,0.042
1680104322175094668,0.042
1680104322182790778,0.031
1680104322190486888,-0.01
1680104322198182998,-0.107
1680104322205879108,-0.155
1680104322213575218,-0.126
1680104322221271328,-0.117
1680104322228967438,-0.132
1680104322236663548,-0.151
1680104322244359658,-0.326
1680104322252055768,-0.755
1680104322259751878,-1.154
1680104322267447988,-0.971
1680104322275144098,-0.122
1680104322282840208,0.515
1680104322290536318,0.338
1680104322298232428,0.023
1680104322305928538,0.069
1680104322313624648,0.13
1680104322321320758,0.073
1680104322329016868,0.079
1680104322336712978,0.128
1680104322344409088,0.124
1680104322352105198,0.117
1680104322359801308,0.145
1680104322367497418,0.153
1680104322375193528,0.132
1680104322382889638,0.117
1680104322390585748,0.098
1680104322398281858,0.079
1680104322405977968,0.073
1680104322413674078,0.061
1680104322421370188,0.056
1680104322429066298,0.07100000000000001
1680104322436762408,0.075
1680104322444458518,0.073
1680104322452154628,0.082
1680104322459850738,0.082
1680104322467546848,0.069
1680104322475242958,0.073
1680104322482939068,0.098
1680104322490635178,0.115
1680104322498331288,0.115
1680104322506027398,0.11900000000000001
1680104322513723508,0.138,,828
1680104322521419618,0.155
1680104322529115728,0.166
1680104322536811838,0.183
1680104322544507948,0.212
1680104322552204058,0.222
1680104322559900168,0.225
1680104322567596278,0.265
1680104322575292388,0.313
1680104322582988498,0.332
1680104322590684608,0.338
1680104322598380718,0.34
1680104322606076828,0.34700000000000003
1680104322613772938,0.357
1680104322621469048,0.357
1680104322629165158,0.342
1680104322636861268,0.307
1680104322644557378,0.26
1680104322652253488,0.23900000000000002
1680104322659949598,0.244
1680104322667645708,0.254
1680104322675341818,0.254
1680104322683037928,0.246
1680104322690734038,0.233
1680104322698430148,0.193
1680104322706126258,0.124
1680104322713822374,0.092,73
1680104322721518414,0.113
1680104322729214454,0.1
1680104322736910494,0.021
1680104322744606534,-0.039
1680104322752302574,-0.029
1680104322759998614,-0.01
1680104322767694654,-0.031
1680104322775390694,-0.067
1680104322783086734,-0.094
1680104322790782774,-0.124
1680104322798478814,-0.166
1680104322806174854,-0.18
1680104322813870894,-0.164
1680104322821566934,-0.166
1680104322829262974,-0.191
1680104322836959014,-0.195
1680104322844655054,-0.17200000000000001
1680104322852351094,-0.159
1680104322860047134,-0.151
1680104322867743174,-0.147
1680104322875439214,-0.189
1680104322883135254,-0.252
1680104322890831294,-0.279
1680104322898527334,-0.258
1680104322906223374,-0.199
1680104322913919414,-0.159
1680104322921615454,-0.168
1680104322929311494,-0.159
1680104322937007534,-0.117
1680104322944703574,-0.10300000000000001
1680104322952399614,-0.107
1680104322960095654,-0.08600000000000001
1680104322967791694,-0.061
1680104322975487734,-0.056
1680104322983183774,-0.105
1680104322990879814,-0.332
1680104322998575854,-0.772
1680104323006271894,-1.102
1680104323013967934,-0.776
1680104323021663974,0.134
1680104323029360014,0.605
1680104323037056054,0.292
1680104323044752094,0.05
1680104323052448134,0.168
1680104323060144174,0.199
1680104323067840214,0.126
1680104323075536254,0.145
1680104323083232294,0.195
1680104323090928334,0.193
1680104323098624374,0.185
1680104323106320414,0.187
1680104323114016454,0.191
1680104323121712494,0.187
1680104323129408534,0.166
1680104323137104574,0.153
1680104323144800614,0.164
1680104323152496654,0.151
1680104323160192694,0.124
1680104323167888734,0.126
1680104323175584774,0.153
1680104323183280814,0.168
1680104323190976854,0.155
1680104323198672894,0.098
1680104323206368934,0.031
1680104323214064974,0.006
1680104323221761014,0.008
1680104323229457054,0.012
1680104323237153094,0.018000000000000002
1680104323244849134,0.016
1680104323252545174,0.021
1680104323260241214,0.044
1680104323267937254,0.069
1680104323275633324,0.088,73
1680104323283329782,0.107
1680104323291026240,0.115
1680104323298722698,0.13
1680104323306419156,0.159,,793
1680104323314115614,0.189
1680104323321812072,0.22
1680104323329508530,0.23900000000000002
1680104323337204988,0.20600000000000002
1680104323344901446,0.157
1680104323352597904,0.166
1680104323360294362,0.193
1680104323367990820,0.187
1680104323375687278,0.153
1680104323383383736,0.124
1680104323391080194,0.122
1680104323398776652,0.132
1680104323406473110,0.13
1680104323414169568,0.138
1680104323421866026,0.149
1680104323429562484,0.138
1680104323437258942,0.136
1680104323444955400,0.166
1680104323452651858,0.185
1680104323460348316,0.176
1680104323468044774,0.185
1680104323475741232,0.201
1680104323483437690,0.197
1680104323491134148,0.195
1680104323498830606,0.212
1680104323506527064,0.23900000000000002
1680104323514223522,0.246
1680104323521919980,0.218
1680104323529616438,0.193
1680104323537312896,0.197
1680104323545009354,0.191
1680104323552705812,0.17400000000000002
1680104323560402270,0.17200000000000001
1680104323568098728,0.147
1680104323575795186,0.092
1680104323583491644,0.058
1680104323591188102,0.039
1680104323598884560,0.033
1680104323606581018,0.018000000000000002
1680104323614277476,-0.031
1680104323621973934,-0.079
1680104323629670392,-0.107
1680104323637366850,-0.136
1680104323645063308,-0.161
1680104323652759766,-0.159
1680104323660456224,-0.138
1680104323668152682,-0.117
1680104323675849140,-0.107
1680104323683545598,-0.082
1680104323691242056,-0.044
1680104323698938514,-0.05
1680104323706634972,-0.117
1680104323714331430,-0.164
1680104323722027888,-0.138
1680104323729724346,-0.10300000000000001
1680104323737420804,-0.132
1680104323745117262,-0.334
1680104323752813720,-0.778
1680104323760510178,-1.194
1680104323768206636,-1.03
1680104323775903094,-0.176
1680104323783599552,0.481
1680104323791296010,0.28600000000000003
1680104323798992468,-0.056
1680104323806688926,0.01
1680104323814385384,0.092
1680104323822081842,0.027
1680104323829778300,0.044
1680104323837474790,0.098
1680104323845171039,0.067
1680104323852867288,0.046
1680104323860563537,0.063
1680104323868259786,0.035
1680104323875956035,0.004
1680104323883652284,0.006
1680104323891348533,-0.002
1680104323899044782,-0.018000000000000002
1680104323906741031,-0.035
1680104323914437280,-0.092
1680104323922133529,-0.124
1680104323929829778,-0.109
1680104323937526027,-0.122
1680104323945222276,-0.134
1680104323952918525,-0.107
1680104323960614774,-0.09
1680104323968311023,-0.1
1680104323976007272,-0.08600000000000001
1680104323983703521,-0.058
1680104323991399770,-0.05
1680104323999096019,-0.033
1680104324006792268,-0.002
1680104324014488517,0.021
1680104324022184766,0.029
1680104324029881015,0.029
1680104324037577264,0.039
1680104324045273513,0.073
1680104324052969762,0.117
1680104324060666011,0.147
1680104324068362260,0.17200000000000001
1680104324076058509,0.20600000000000002
1680104324083754758,0.227
1680104324091451007,0.233
1680104324099147256,0.252,,794
1680104324106843505,0.262
1680104324114539754,0.222
1680104324122236003,0.18
1680104324129932252,0.193
1680104324137628501,0.21
1680104324145324750,0.195
1680104324153020999,0.197
1680104324160717248,0.225
1680104324168413497,0.227
1680104324176109746,0.20400000000000001
1680104324183805995,0.201
1680104324191502244,0.222
1680104324199198493,0.23900000000000002
1680104324206894742,0.233
1680104324214590991,0.191
1680104324222287240,0.145
1680104324229983489,0.147
1680104324237679738,0.164
1680104324245375987,0.161
1680104324253072236,0.17
1680104324260768485,0.18
1680104324268464734,0.176
1680104324276160983,0.185
1680104324283857232,0.21
1680104324291553481,0.229
1680104324299249730,0.231
1680104324306945979,0.222
1680104324314642228,0.222
1680104324322338477,0.20600000000000002
1680104324330034726,0.168
1680104324337730975,0.17
1680104324345427224,0.191
1680104324353123473,0.157
1680104324360819722,0.092
1680104324368515971,0.065
1680104324376212220,0.052000000000000005
1680104324383908469,-0.008
1680104324391604718,-0.079
1680104324399300996,-0.109,73
1680104324406997245,-0.115
1680104324414693494,-0.096
1680104324422389743,-0.061
1680104324430085992,-0.048
1680104324437782241,-0.061
1680104324445478490,-0.1
1680104324453174739,-0.147
1680104324460870988,-0.145
1680104324468567237,-0.11900000000000001
1680104324476263486,-0.122
1680104324483959735,-0.128
1680104324491655984,-0.134
1680104324499352233,-0.28300000000000003
1680104324507048482,-0.6900000000000001
1680104324514744731,-1.125
1680104324522440980,-1.053
1680104324530137229,-0.275
1680104324537833478,0.45
1680104324545529727,0.374
1680104324553225976,0.025
1680104324560922225,0.01
1680104324568618474,0.079
1680104324576314723,0.056
1680104324584010972,0.065
1680104324591707221,0.084
1680104324599403470,0.079
1680104324607099719,0.088
1680104324614795968,0.088
1680104324622492217,0.067
1680104324630188466,0.044
1680104324637884715,0.037
1680104324645580964,0.054
1680104324653277213,0.069
1680104324660973462,0.07100000000000001
1680104324668669711,0.079
1680104324676365960,0.1
1680104324684062209,0.105
1680104324691758458,0.096
1680104324699454707,0.092
1680104324707150956,0.092
1680104324714847205,0.073
1680104324722543454,0.012
1680104324730239703,-0.027
1680104324737935952,-0.004
1680104324745632201,0.014
1680104324753328450,0.008
1680104324761024699,0.035
1680104324768720948,0.079
1680104324776417197,0.088
1680104324784113446,0.065
1680104324791809695,0.107
1680104324799505944,0.187
1680104324807202193,0.168
1680104324814898442,0.157
1680104324822594691,0.277
1680104324830290940,0.315
1680104324837987189,0.28300000000000003
1680104324845683438,0.368
1680104324853379687,0.403
1680104324861075936,0.302
1680104324868772185,0.246
1680104324876468434,0.262
1680104324884164683,0.265,,780
1680104324891860932,0.277
1680104324899557181,0.28800000000000003
1680104324907253430,0.225
1680104324914949679,0.168
1680104324922645928,0.159
1680104324930342177,0.14300000000000002
1680104324938038426,0.134
1680104324945734675,0.159
1680104324953430924,0.185
1680104324961127204,0.193
1680104324968824010,0.20600000000000002
1680104324976520816,0.231
1680104324984217622,0.23900000000000002
1680104324991914428,0.244
1680104324999611234,0.265
1680104325007308040,0.23900000000000002
1680104325015004846,0.17200000000000001
1680104325022701652,0.138
1680104325030398458,0.153
1680104325038095264,0.17
1680104325045792070,0.166
1680104325053488876,0.168
1680104325061185682,0.178
1680104325068882488,0.193
1680104325076579294,0.201
1680104325084276100,0.18
1680104325091972906,0.157
1680104325099669712,0.138
1680104325107366518,0.09
1680104325115063324,0.033
1680104325122760130,0.031
1680104325130456936,0.048
1680104325138153742,0.01
1680104325145850548,-0.016
1680104325153547354,0.002
1680104325161244160,-0.023
1680104325168940966,-0.069
1680104325176637772,-0.07100000000000001
1680104325184334578,-0.088
1680104325192031384,-0.117
1680104325199728190,-0.111
1680104325207424996,-0.096
1680104325215121802,-0.098
1680104325222818608,-0.161
1680104325230515414,-0.403
1680104325238212220,-0.835
1680104325245909026,-1.249
1680104325253605832,-1.232
1680104325261302638,-0.521
1680104325268999444,0.25
1680104325276696250,0.20800000000000002
1680104325284393056,-0.18
1680104325292089862,-0.168
1680104325299786668,-0.035
1680104325307483474,-0.07100000000000001
1680104325315180280,-0.084
1680104325322877086,-0.031
1680104325330573892,-0.023
1680104325338270698,-0.061
1680104325345967504,-0.094
1680104325353664310,-0.10300000000000001
1680104325361361116,-0.09
1680104325369057922,-0.058
1680104325376754728,-0.052000000000000005
1680104325384451534,-0.058
1680104325392148340,-0.029
1680104325399845146,-0.016
1680104325407541952,-0.033
1680104325415238758,-0.014
1680104325422935564,0.002
1680104325430632370,-0.01
1680104325438329176,-0.006
1680104325446025982,0.018000000000000002
1680104325453722788,0.023
1680104325461419594,0.018000000000000002
1680104325469116400,0.035
1680104325476813206,0.061
1680104325484510012,0.082
1680104325492206818,0.105
1680104325499903624,0.138
1680104325507600430,0.145
1680104325515297236,0.14
1680104325522994100,0.17200000000000001,75
1680104325530690628,0.191
1680104325538387156,0.183
1680104325546083684,0.20600000000000002
1680104325553780212,0.229
1680104325561476740,0.189
1680104325569173268,0.178
1680104325576869796,0.225
1680104325584566324,0.214
1680104325592262852,0.136
1680104325599959380,0.094
1680104325607655908,0.138
1680104325615352436,0.191
1680104325623048964,0.191
1680104325630745492,0.189,,745
1680104325638442020,0.201
1680104325646138548,0.199
1680104325653835076,0.185
1680104325661531604,0.17200000000000001
1680104325669228132,0.164
1680104325676924660,0.178
1680104325684621188,0.189
1680104325692317716,0.18
1680104325700014244,0.176
1680104325707710772,0.178
1680104325715407300,0.193
1680104325723103828,0.212
1680104325730800356,0.153
1680104325738496884,0.044
1680104325746193412,0.031
1680104325753889940,0.077
1680104325761586468,0.077
1680104325769282996,0.09
1680104325776979524,0.14
1680104325784676052,0.151
1680104325792372580,0.134
1680104325800069108,0.147
1680104325807765636,0.166
1680104325815462164,0.164
1680104325823158692,0.14300000000000002
1680104325830855220,0.111
1680104325838551748,0.069
1680104325846248276,0.031
1680104325853944804,-0.008
1680104325861641332,-0.039
1680104325869337860,-0.027
1680104325877034388,0.006
1680104325884730916,0.004
1680104325892427444,-0.025
1680104325900123972,-0.039
1680104325907820500,-0.058
1680104325915517028,-0.10300000000000001
1680104325923213556,-0.134
1680104325930910084,-0.14300000000000002
1680104325938606612,-0.132
1680104325946303140,-0.109
1680104325953999668,-0.166
1680104325961696196,-0.46900000000000003
1680104325969392724,-0.9520000000000001
1680104325977089252,-1.194
1680104325984785780,-0.738
1680104325992482308,0.157
1680104326000178836,0.46
1680104326007875364,0.084
1680104326015571892,-0.079
1680104326023268420,0.048
1680104326030964948,0.052000000000000005
1680104326038661476,-0.002
1680104326046358004,0.025
1680104326054054532,0.044
1680104326061751060,0.018000000000000002
1680104326069447588,0.006
1680104326077144116,0.006
1680104326084840652,-0.018000000000000002
1680104326092536762,-0.044
1680104326100232872,-0.046
1680104326107928982,-0.048
1680104326115625092,-0.05
1680104326123321202,-0.056
1680104326131017312,-0.092
1680104326138713422,-0.109
1680104326146409532,-0.088
1680104326154105642,-0.10300000000000001
1680104326161801752,-0.155
1680104326169497862,-0.138
1680104326177193972,-0.088
1680104326184890082,-0.096
1680104326192586192,-0.113
1680104326200282302,-0.1
1680104326207978412,-0.084
1680104326215674522,-0.069
1680104326223370632,-0.039
1680104326231066742,-0.016
1680104326238762852,-0.067
1680104326246458962,-0.14300000000000002
1680104326254155072,-0.109
1680104326261851182,-0.037
1680104326269547292,-0.029
1680104326277243402,0.0
1680104326284939512,0.056
1680104326292635622,0.061
1680104326300331732,0.063
1680104326308027842,0.092
1680104326315723952,0.10300000000000001
1680104326323420062,0.094
1680104326331116172,0.077
1680104326338812282,0.046
1680104326346508392,0.044
1680104326354204502,0.07100000000000001
1680104326361900612,0.084
1680104326369596722,0.094,,745
1680104326377292832,0.109
1680104326384988942,0.111
1680104326392685052,0.109
1680104326400381162,0.111
1680104326408077272,0.122
1680104326415773382,0.14300000000000002
1680104326423469492,0.149
1680104326431165602,0.145
1680104326438861712,0.161
1680104326446557822,0.191
1680104326454253932,0.20400000000000001
1680104326461950042,0.212
1680104326469646152,0.229
1680104326477342262,0.229
1680104326485038372,0.214
1680104326492734482,0.22
1680104326500430592,0.256
1680104326508126702,0.28600000000000003
1680104326515822812,0.281
1680104326523518922,0.269
1680104326531215032,0.281
1680104326538911142,0.3
1680104326546607252,0.302
1680104326554303362,0.3
1680104326561999472,0.3
1680104326569695582,0.277
1680104326577391692,0.22
1680104326585087802,0.191
1680104326592783912,0.22
1680104326600480022,0.23900000000000002
1680104326608176132,0.20800000000000002
1680104326615872242,0.178
1680104326623568352,0.178
1680104326631264462,0.166
1680104326638960572,0.122
1680104326646656690,0.084,75
1680104326654353078,0.056
1680104326662049466,0.031
1680104326669745854,-0.004
1680104326677442242,-0.183
1680104326685138630,-0.614
1680104326692835018,-1.041
1680104326700531406,-0.9380000000000001
1680104326708227794,-0.149
1680104326715924182,0.5
1680104326723620570,0.296
1680104326731316958,-0.092
1680104326739013346,-0.065
1680104326746709734,-0.044
1680104326754406122,-0.187
1680104326762102510,-0.222
1680104326769798898,-0.183
1680104326777495286,-0.197
1680104326785191674,-0.212
1680104326792888062,-0.20400000000000001
1680104326800584450,-0.189
1680104326808280838,-0.159
1680104326815977226,-0.138
1680104326823673614,-0.157
1680104326831370002,-0.161
1680104326839066390,-0.14300000000000002
1680104326846762778,-0.164
1680104326854459166,-0.195
1680104326862155554,-0.18
1680104326869851942,-0.161
1680104326877548330,-0.166
1680104326885244718,-0.159
1680104326892941106,-0.151
1680104326900637494,-0.155
1680104326908333882,-0.149
1680104326916030270,-0.128
1680104326923726658,-0.092
1680104326931423046,-0.065
1680104326939119434,-0.058
1680104326946815822,-0.048
1680104326954512210,-0.014
1680104326962208598,0.018000000000000002
1680104326969904986,0.037
1680104326977601374,0.065
1680104326985297762,0.1
1680104326992994150,0.122
1680104327000690538,0.134
1680104327008386926,0.166
1680104327016083314,0.229
1680104327023779702,0.273
1680104327031476090,0.256
1680104327039172478,0.23900000000000002
1680104327046868866,0.267
1680104327054565254,0.294
1680104327062261642,0.294
1680104327069958030,0.26
1680104327077654418,0.231
1680104327085350806,0.225
1680104327093047194,0.222
1680104327100743582,0.23500000000000001
1680104327108439970,0.265
1680104327116136358,0.269
1680104327123832746,0.23900000000000002
1680104327131529134,0.23500000000000001,,756
1680104327139225522,0.26
1680104327146921910,0.265
1680104327154618298,0.26
1680104327162314686,0.279
1680104327170011074,0.28800000000000003
1680104327177707462,0.277
1680104327185403850,0.281
1680104327193100238,0.298
1680104327200796626,0.309
1680104327208493070,0.317,76
1680104327216189737,0.33
1680104327223886404,0.34
1680104327231583071,0.338
1680104327239279738,0.326
1680104327246976405,0.29
1680104327254673072,0.222
1680104327262369739,0.164
1680104327270066406,0.111
1680104327277763073,0.082
1680104327285459740,0.08600000000000001
1680104327293156407,0.075
1680104327300853074,0.039
1680104327308549741,0.0
1680104327316246408,-0.033
1680104327323943075,-0.018000000000000002
1680104327331639742,0.018000000000000002
1680104327339336409,0.025
1680104327347033076,0.01
1680104327354729743,-0.018000000000000002
1680104327362426410,-0.039
1680104327370123077,-0.027
1680104327377819744,-0.014
1680104327385516411,-0.031
1680104327393213078,-0.052000000000000005
1680104327400909745,-0.08600000000000001
1680104327408606412,-0.3
1680104327416303079,-0.801
1680104327423999746,-1.266
1680104327431696413,-1.1400000000000001
1680104327439393080,-0.328
1680104327447089747,0.332
1680104327454786414,0.17200000000000001
1680104327462483081,-0.136
1680104327470179748,-0.05
1680104327477876415,0.021
1680104327485573082,-0.048
1680104327493269749,-0.048
1680104327500966416,-0.027
1680104327508663083,-0.048
1680104327516359750,-0.031
1680104327524056417,0.014
1680104327531753084,0.021
1680104327539449751,0.002
1680104327547146418,0.004
1680104327554843085,0.002
1680104327562539752,-0.037
1680104327570236419,-0.069
1680104327577933086,-0.054
1680104327585629753,-0.044
1680104327593326420,-0.063
1680104327601023087,-0.069
1680104327608719754,-0.048
1680104327616416421,-0.016
1680104327624113088,0.002
1680104327631809755,-0.002
1680104327639506422,0.004
1680104327647203089,0.031
1680104327654899756,0.046
1680104327662596423,0.05
1680104327670293090,0.067
1680104327677989757,0.07100000000000001
1680104327685686424,0.037
1680104327693383091,0.025
1680104327701079758,0.065
1680104327708776425,0.109
1680104327716473092,0.128
1680104327724169759,0.138
1680104327731866426,0.17
1680104327739563093,0.212
1680104327747259760,0.212
1680104327754956427,0.166
1680104327762653094,0.138
1680104327770349794,0.147
1680104327778046461,0.14
1680104327785743128,0.13
1680104327793439795,0.14300000000000002
1680104327801136462,0.145
1680104327808833129,0.113
1680104327816529796,0.082
1680104327824226463,0.082
1680104327831923130,0.077
1680104327839619797,0.033
1680104327847316464,0.002
1680104327855013131,0.016
1680104327862709798,0.014
1680104327870406465,-0.004
1680104327878103132,0.01
1680104327885799799,0.042,,755
1680104327893496466,0.052000000000000005
1680104327901193133,0.05
1680104327908889800,0.061
1680104327916586467,0.08600000000000001
1680104327924283134,0.105
1680104327931979801,0.113
1680104327939676468,0.13
1680104327947373135,0.151
1680104327955069802,0.149
1680104327962766469,0.145
1680104327970463136,0.164
1680104327978159803,0.187
1680104327985856470,0.20400000000000001
1680104327993553137,0.212
1680104328001249804,0.218
1680104328008946471,0.229
1680104328016643138,0.23900000000000002
1680104328024339805,0.244
1680104328032036472,0.25
1680104328039733139,0.252
1680104328047429806,0.22
1680104328055126473,0.168
1680104328062823140,0.164
1680104328070519807,0.216
1680104328078216474,0.248
1680104328085913141,0.23500000000000001
1680104328093609808,0.22
1680104328101306475,0.218
1680104328109003142,0.20800000000000002
1680104328116699809,0.195
1680104328124396476,0.193
1680104328132093143,0.193
1680104328139789810,0.168
1680104328147486477,0.092
1680104328155183144,-0.17
1680104328162879811,-0.683
1680104328170576478,-1.093
1680104328178273145,-0.837
1680104328185969812,0.025
1680104328193666479,0.502
1680104328201363146,0.201
1680104328209059813,-0.037
1680104328216756480,0.084
1680104328224453147,0.1
1680104328232149814,0.006
1680104328239846481,0.018000000000000002
1680104328247543148,0.039
1680104328255239815,-0.033
1680104328262936482,-0.096
1680104328270633149,-0.088
1680104328278329816,-0.08600000000000001
1680104328286026483,-0.115
1680104328293723150,-0.138
1680104328301419817,-0.161
1680104328309116484,-0.17200000000000001
1680104328316813151,-0.17400000000000002
1680104328324509818,-0.185
1680104328332206520,-0.178,77
1680104328339902978,-0.153
1680104328347599436,-0.147
1680104328355295894,-0.14300000000000002
1680104328362992352,-0.128
1680104328370688810,-0.147
1680104328378385268,-0.20400000000000001
1680104328386081726,-0.222
1680104328393778184,-0.193
1680104328401474642,-0.17
1680104328409171100,-0.166
1680104328416867558,-0.151
1680104328424564016,-0.124
1680104328432260474,-0.096
1680104328439956932,-0.082
1680104328447653390,-0.056
1680104328455349848,-0.018000000000000002
1680104328463046306,0.0
1680104328470742764,0.014
1680104328478439222,0.058
1680104328486135680,0.107
1680104328493832138,0.132
1680104328501528596,0.145
1680104328509225054,0.153
1680104328516921512,0.164
1680104328524617970,0.178
1680104328532314428,0.187
1680104328540010886,0.185
1680104328547707344,0.155
1680104328555403802,0.115
1680104328563100260,0.109
1680104328570796718,0.13
1680104328578493176,0.14300000000000002
1680104328586189634,0.145
1680104328593886092,0.147
1680104328601582550,0.151
1680104328609279008,0.155
1680104328616975466,0.161,,731
1680104328624671924,0.176
1680104328632368382,0.199
1680104328640064840,0.218
1680104328647761298,0.218
1680104328655457756,0.22
1680104328663154214,0.248
1680104328670850672,0.267
1680104328678547130,0.269
1680104328686243588,0.277
1680104328693940046,0.28600000000000003
1680104328701636504,0.28800000000000003
1680104328709332962,0.296
1680104328717029420,0.309
1680104328724725878,0.313
1680104328732422336,0.311
1680104328740118794,0.307
1680104328747815252,0.309
1680104328755511710,0.279
1680104328763208168,0.20800000000000002
1680104328770904626,0.176
1680104328778601084,0.193
1680104328786297542,0.155
1680104328793994000,0.063
1680104328801690458,0.016
1680104328809386916,0.035
1680104328817083374,0.069
1680104328824779832,0.08600000000000001
1680104328832476290,0.063
1680104328840172748,0.029
1680104328847869206,0.037
1680104328855565664,0.05
1680104328863262122,0.042
1680104328870958580,0.035
1680104328878655038,0.01
1680104328886351496,-0.027
1680104328894047986,-0.061
1680104328901744444,-0.216
1680104328909440902,-0.626
1680104328917137360,-1.114
1680104328924833818,-1.173
1680104328932530276,-0.481
1680104328940226734,0.307
1680104328947923192,0.26
1680104328955619650,-0.164
1680104328963316108,-0.17400000000000002
1680104328971012566,-0.075
1680104328978709024,-0.151
1680104328986405482,-0.159
1680104328994101940,-0.1
1680104329001798398,-0.107
1680104329009494856,-0.117
1680104329017191314,-0.098
1680104329024887772,-0.088
1680104329032584230,-0.098
1680104329040280688,-0.117
1680104329047977146,-0.122
1680104329055673604,-0.111
1680104329063370062,-0.109
1680104329071066520,-0.111
1680104329078762978,-0.092
1680104329086459436,-0.067
1680104329094155894,-0.065
1680104329101852352,-0.069
1680104329109548810,-0.067
1680104329117245268,-0.052000000000000005
1680104329124941726,-0.046
1680104329132638184,-0.044
1680104329140334642,-0.014
1680104329148031100,0.018000000000000002
1680104329155727558,0.018000000000000002
1680104329163424016,0.021
1680104329171120474,0.05
1680104329178816932,0.073
1680104329186513390,0.077
1680104329194209848,0.08600000000000001
1680104329201906306,0.094
1680104329209602764,0.111
1680104329217299222,0.14300000000000002
1680104329224995680,0.17200000000000001
1680104329232692138,0.20400000000000001
1680104329240388596,0.23700000000000002
1680104329248085054,0.25
1680104329255781512,0.22
1680104329263477970,0.176
1680104329271174428,0.159
1680104329278870886,0.157
1680104329286567344,0.11900000000000001
1680104329294263802,0.082
1680104329301960260,0.084
1680104329309656718,0.09
1680104329317353176,0.088
1680104329325049634,0.109
1680104329332746092,0.126
1680104329340442550,0.117,,727
1680104329348139008,0.117
1680104329355835466,0.14300000000000002
1680104329363531924,0.161
1680104329371228382,0.168
1680104329378924840,0.183
1680104329386621298,0.195
1680104329394317756,0.193
1680104329402014214,0.197
1680104329409710672,0.225
1680104329417407130,0.25
1680104329425103588,0.256
1680104329432800046,0.244
1680104329440496504,0.246
1680104329448192962,0.273
1680104329455889452,0.28800000000000003,77
1680104329463585910,0.28600000000000003
1680104329471282368,0.294
1680104329478978826,0.296
1680104329486675284,0.26
1680104329494371742,0.214
1680104329502068200,0.216
1680104329509764658,0.23700000000000002
1680104329517461116,0.227
1680104329525157574,0.191
1680104329532854032,0.157
1680104329540550490,0.124
1680104329548246948,0.1
1680104329555943406,0.079
1680104329563639864,0.044
1680104329571336322,0.014
1680104329579032780,0.027
1680104329586729238,0.042
1680104329594425696,0.044
1680104329602122154,0.037
1680104329609818612,0.004
1680104329617515070,-0.035
1680104329625211528,-0.067
1680104329632907986,-0.088
1680104329640604444,-0.096
1680104329648300902,-0.094
1680104329655997360,-0.195
1680104329663693818,-0.555
1680104329671390276,-1.018
1680104329679086734,-1.114
1680104329686783192,-0.504
1680104329694479650,0.3
1680104329702176108,0.393
1680104329709872566,0.031
1680104329717569024,-0.039
1680104329725265482,0.031
1680104329732961940,-0.006
1680104329740658398,-0.006
1680104329748354856,0.037
1680104329756051314,0.018000000000000002
1680104329763747772,-0.048
1680104329771444230,-0.11900000000000001
1680104329779140688,-0.178
1680104329786837146,-0.20400000000000001
1680104329794533604,-0.212
1680104329802230062,-0.214
1680104329809926520,-0.21
1680104329817622978,-0.21
1680104329825319436,-0.201
1680104329833015894,-0.17400000000000002
1680104329840712352,-0.157
1680104329848408810,-0.168
1680104329856105268,-0.17400000000000002
1680104329863801726,-0.147
1680104329871498184,-0.113
1680104329879194642,-0.107
1680104329886891100,-0.107
1680104329894587558,-0.096
1680104329902284016,-0.079
1680104329909980474,-0.058
1680104329917676932,-0.029
1680104329925373390,0.006
1680104329933069848,0.027
1680104329940766306,0.027
1680104329948462764,0.035
1680104329956159222,0.07100000000000001
1680104329963855680,0.107
1680104329971552138,0.14
1680104329979248596,0.183
1680104329986945054,0.225
1680104329994641512,0.256
1680104330002337970,0.277
1680104330010034428,0.294
1680104330017730920,0.292
1680104330025427378,0.244
1680104330033123836,0.187
1680104330040820294,0.183
1680104330048516752,0.20400000000000001
1680104330056213210,0.201,,719
1680104330063909668,0.193
1680104330071606126,0.201
1680104330079302584,0.197
1680104330086999042,0.153
1680104330094695500,0.107
1680104330102391958,0.109
1680104330110088416,0.132
1680104330117784874,0.124
1680104330125481332,0.109
1680104330133177790,0.126
1680104330140874248,0.157
1680104330148570706,0.17200000000000001
1680104330156267164,0.176
1680104330163963622,0.197
1680104330171660080,0.212
1680104330179356538,0.20600000000000002
1680104330187052996,0.212
1680104330194749454,0.23700000000000002
1680104330202445912,0.25
1680104330210142370,0.252
1680104330217838828,0.258
1680104330225535286,0.271
1680104330233231744,0.28600000000000003
1680104330240928202,0.292
1680104330248624660,0.298
1680104330256321118,0.309
1680104330264017576,0.29
1680104330271714034,0.21
1680104330279410492,0.122
1680104330287106950,0.082
1680104330294803408,0.061
1680104330302499866,0.05
1680104330310196324,0.084
1680104330317892782,0.111
1680104330325589240,0.073
1680104330333285698,0.035
1680104330340982156,0.027
1680104330348678614,0.0
1680104330356375072,-0.052000000000000005
1680104330364071530,-0.08600000000000001
1680104330371767988,-0.082
1680104330379464446,-0.07100000000000001
1680104330387160904,-0.145
1680104330394857362,-0.445
1680104330402553820,-0.929
1680104330410250278,-1.205
1680104330417946736,-0.784
1680104330425643194,0.115
1680104330433339652,0.46900000000000003
1680104330441036110,0.115
1680104330448732568,-0.067
1680104330456429026,0.048
1680104330464125484,0.052000000000000005
1680104330471821942,0.018000000000000002
1680104330479518400,0.058
1680104330487214858,0.077
1680104330494911316,0.07100000000000001
1680104330502607774,0.096
1680104330510304232,0.105
1680104330518000690,0.07100000000000001
1680104330525697148,0.056
1680104330533393606,0.056
1680104330541090064,0.033
1680104330548786522,0.021
1680104330556482980,0.039
1680104330564179438,0.046
1680104330571875896,0.044
1680104330579572386,0.05,78
1680104330587268844,0.052000000000000005
1680104330594965302,0.044
1680104330602661760,0.05
1680104330610358218,0.073
1680104330618054676,0.09
1680104330625751134,0.08600000000000001
1680104330633447592,0.084
1680104330641144050,0.107
1680104330648840508,0.14
1680104330656536966,0.128
1680104330664233424,0.088
1680104330671929882,0.09
1680104330679626340,0.098
1680104330687322798,0.082
1680104330695019256,0.09
1680104330702715714,0.132
1680104330710412172,0.161
1680104330718108630,0.161
1680104330725805088,0.161
1680104330733501546,0.185
1680104330741198004,0.218
1680104330748894462,0.225
1680104330756590920,0.20600000000000002
1680104330764287378,0.176
1680104330771983836,0.151
1680104330779680294,0.109
1680104330787376752,0.052000000000000005,,731
1680104330795073210,0.031
1680104330802769668,0.039
1680104330810466126,0.042
1680104330818162584,0.033
1680104330825859042,0.039
1680104330833555500,0.048
1680104330841251958,0.048
1680104330848948416,0.058
1680104330856644874,0.082
1680104330864341332,0.088
1680104330872037790,0.084
1680104330879734248,0.1
1680104330887430706,0.132
1680104330895127164,0.147
1680104330902823622,0.147
1680104330910520080,0.151
1680104330918216538,0.159
1680104330925912996,0.166
1680104330933609454,0.189
1680104330941305912,0.222
1680104330949002370,0.231
1680104330956698828,0.22
1680104330964395286,0.231
1680104330972091744,0.254
1680104330979788202,0.267
1680104330987484660,0.273
1680104330995181118,0.279
1680104331002877576,0.241
1680104331010574034,0.151
1680104331018270492,0.073
1680104331025966950,0.046
1680104331033663408,0.058
1680104331041359866,0.094
1680104331049056324,0.08600000000000001
1680104331056752782,0.033
1680104331064449240,0.023
1680104331072145698,0.023
1680104331079842156,-0.016
1680104331087538614,-0.039
1680104331095235072,-0.035
1680104331102931530,-0.039
1680104331110627988,-0.042
1680104331118324446,-0.117
1680104331126020904,-0.437
1680104331133717362,-0.934
1680104331141413852,-1.133
1680104331149110310,-0.578
1680104331156806768,0.292
1680104331164503226,0.46
1680104331172199684,0.079
1680104331179896142,-0.012
1680104331187592600,0.07100000000000001
1680104331195289058,-0.014
1680104331202985516,-0.08600000000000001
1680104331210681974,-0.029
1680104331218378432,-0.004
1680104331226074890,-0.044
1680104331233771348,-0.058
1680104331241467806,-0.046
1680104331249164264,-0.058
1680104331256860722,-0.10300000000000001
1680104331264557180,-0.11900000000000001
1680104331272253638,-0.122
1680104331279950096,-0.166
1680104331287646554,-0.229
1680104331295343012,-0.23700000000000002
1680104331303039470,-0.212
1680104331310735928,-0.21
1680104331318432386,-0.216
1680104331326128844,-0.20800000000000002
1680104331333825302,-0.183
1680104331341521760,-0.168
1680104331349218218,-0.168
1680104331356914676,-0.151
1680104331364611134,-0.11900000000000001
1680104331372307592,-0.105
1680104331380004050,-0.098
1680104331387700508,-0.07100000000000001
1680104331395396966,-0.029
1680104331403093424,0.0
1680104331410789882,0.01
1680104331418486340,0.014
1680104331426182798,0.042
1680104331433879256,0.084
1680104331441575714,0.109
1680104331449272172,0.136
1680104331456968630,0.178
1680104331464665088,0.201
1680104331472361546,0.201
1680104331480058004,0.214
1680104331487754462,0.244
1680104331495450920,0.248
1680104331503147378,0.218
1680104331510843836,0.195
1680104331518540294,0.193
1680104331526236752,0.189
1680104331533933210,0.176,,745
1680104331541629668,0.176
1680104331549326126,0.195
1680104331557022584,0.20800000000000002
1680104331564719042,0.20400000000000001
1680104331572415500,0.20600000000000002
1680104331580111958,0.222
1680104331587808416,0.23700000000000002
1680104331595504874,0.244
1680104331603201332,0.248
1680104331610897790,0.25
1680104331618594248,0.252
1680104331626290706,0.258
1680104331633987164,0.279
1680104331641683622,0.294
1680104331649380080,0.28300000000000003
1680104331657076538,0.273
1680104331664772996,0.296
1680104331672469454,0.323
1680104331680165912,0.328
1680104331687862370,0.323
1680104331695558828,0.317
1680104331703255318,0.305,78
1680104331710952124,0.305
1680104331718648930,0.336
1680104331726345736,0.359
1680104331734042542,0.34700000000000003
1680104331741739348,0.307
1680104331749436154,0.23900000000000002
1680104331757132960,0.17
1680104331764829766,0.138
1680104331772526572,0.13
1680104331780223378,0.10300000000000001
1680104331787920184,0.027
1680104331795616990,-0.054
1680104331803313796,-0.077
1680104331811010602,-0.084
1680104331818707408,-0.153
1680104331826404214,-0.248
1680104331834101020,-0.277
1680104331841797826,-0.273
1680104331849494632,-0.40800000000000003
1680104331857191438,-0.79
1680104331864888244,-1.194
1680104331872585050,-1.108
1680104331880281856,-0.353
1680104331887978662,0.336
1680104331895675468,0.25
1680104331903372274,-0.08600000000000001
1680104331911069080,-0.098
1680104331918765886,-0.05
1680104331926462692,-0.084
1680104331934159498,-0.058
1680104331941856304,-0.042
1680104331949553110,-0.077
1680104331957249916,-0.058
1680104331964946722,-0.01
1680104331972643528,-0.027
1680104331980340334,-0.07100000000000001
1680104331988037140,-0.082
1680104331995733946,-0.07100000000000001
1680104332003430752,-0.069
1680104332011127558,-0.075
1680104332018824364,-0.077
1680104332026521170,-0.063
1680104332034217976,-0.061
1680104332041914782,-0.082
1680104332049611588,-0.084
1680104332057308394,-0.073
1680104332065005200,-0.088
1680104332072702006,-0.092
1680104332080398812,-0.065
1680104332088095618,-0.042
1680104332095792424,-0.039
1680104332103489230,-0.025
1680104332111186036,0.006
1680104332118882842,0.023
1680104332126579648,0.027
1680104332134276454,0.042
1680104332141973260,0.07100000000000001
1680104332149670066,0.105
1680104332157366872,0.111
1680104332165063678,0.1
1680104332172760484,0.138
1680104332180457290,0.197
1680104332188154096,0.214
1680104332195850902,0.222
1680104332203547708,0.254
1680104332211244514,0.262
1680104332218941320,0.23900000000000002
1680104332226638126,0.233
1680104332234334932,0.254
1680104332242031738,0.248
1680104332249728544,0.195
1680104332257425350,0.168
1680104332265122214,0.187,79
1680104332272819160,0.195
1680104332280516106,0.17
1680104332288213052,0.111,,749
1680104332295909998,0.046
1680104332303606944,0.012
1680104332311303890,-0.021
1680104332319000836,-0.044
1680104332326697782,-0.027
1680104332334394728,-0.021
1680104332342091674,-0.035
1680104332349788620,-0.01
1680104332357485566,0.027
1680104332365182512,0.029
1680104332372879458,0.033
1680104332380576404,0.056
1680104332388273350,0.067
1680104332395970296,0.061
1680104332403667242,0.069
1680104332411364188,0.088
1680104332419061134,0.111
1680104332426758080,0.132
1680104332434455026,0.138
1680104332442151972,0.134
1680104332449848918,0.132
1680104332457545864,0.128
1680104332465242810,0.122
1680104332472939756,0.138
1680104332480636702,0.168
1680104332488333648,0.166
1680104332496030594,0.149
1680104332503727540,0.14300000000000002
1680104332511424486,0.124
1680104332519121432,0.096
1680104332526818378,0.09
1680104332534515324,0.09
1680104332542212270,0.08600000000000001
1680104332549909216,0.067
1680104332557606162,-0.067
1680104332565303108,-0.46
1680104332573000054,-0.974
1680104332580697000,-1.106
1680104332588393946,-0.47700000000000004
1680104332596090892,0.357
1680104332603787838,0.427
1680104332611484784,0.016
1680104332619181730,-0.069
1680104332626878676,0.027
1680104332634575622,0.0
1680104332642272568,-0.025
1680104332649969514,0.014
1680104332657666460,0.023
1680104332665363406,-0.004
1680104332673060352,-0.008
1680104332680757298,0.012
1680104332688454244,0.029
1680104332696151190,0.027
1680104332703848136,0.014
1680104332711545082,0.006
1680104332719242028,0.021
1680104332726938974,0.033
1680104332734635920,0.004
1680104332742332866,-0.014
1680104332750029812,-0.002
1680104332757726758,-0.012
1680104332765423704,-0.029
1680104332773120650,-0.008
1680104332780817596,0.01
1680104332788514542,-0.018000000000000002
1680104332796211488,-0.075
1680104332803908434,-0.105
1680104332811605380,-0.09
1680104332819302326,-0.07100000000000001
1680104332826999284,-0.058
1680104332834695324,-0.037
1680104332842391364,-0.021
1680104332850087404,-0.021
1680104332857783444,-0.012
1680104332865479484,0.018000000000000002
1680104332873175524,0.027
1680104332880871564,-0.004
1680104332888567604,-0.008
1680104332896263644,0.016
1680104332903959684,0.023
1680104332911655724,0.031
1680104332919351764,0.065
1680104332927047804,0.09
1680104332934743844,0.08600000000000001
1680104332942439884,0.079
1680104332950135924,0.092
1680104332957831964,0.111
1680104332965528004,0.113
1680104332973224044,0.1
1680104332980920084,0.075
1680104332988616124,0.052000000000000005
1680104332996312164,0.05
1680104333004008204,0.063
1680104333011704244,0.084
1680104333019400284,0.111
1680104333027096324,0.128
1680104333034792364,0.122
1680104333042488404,0.126,,755
1680104333050184444,0.145
1680104333057880484,0.155
1680104333065576524,0.168
1680104333073272564,0.191
1680104333080968604,0.197
1680104333088664644,0.191
1680104333096360684,0.20400000000000001
1680104333104056724,0.23700000000000002
1680104333111752764,0.252
1680104333119448804,0.25
1680104333127144844,0.25
1680104333134840884,0.252
1680104333142536924,0.246
1680104333150232964,0.23500000000000001
1680104333157929004,0.231
1680104333165625044,0.256
1680104333173321084,0.294
1680104333181017124,0.302
1680104333188713164,0.302
1680104333196409204,0.326
1680104333204105244,0.34
1680104333211801284,0.328
1680104333219497324,0.305
1680104333227193364,0.275
1680104333234889404,0.252
1680104333242585444,0.254
1680104333250281484,0.176
1680104333257977524,-0.189
1680104333265673564,-0.753
1680104333273369604,-0.965
1680104333281065644,-0.372
1680104333288761684,0.517
1680104333296457724,0.624
1680104333304153764,0.124
1680104333311849804,-0.025
1680104333319545844,0.073
1680104333327241884,-0.004
1680104333334937924,-0.073
1680104333342633964,-0.027
1680104333350330004,-0.031
1680104333358026044,-0.075
1680104333365722084,-0.077
1680104333373418124,-0.061
1680104333381114164,-0.065
1680104333388810236,-0.07100000000000001,79
1680104333396506694,-0.07100000000000001
1680104333404203152,-0.07100000000000001
1680104333411899610,-0.075
1680104333419596068,-0.077
1680104333427292526,-0.069
1680104333434988984,-0.056
1680104333442685442,-0.054
1680104333450381900,-0.075
1680104333458078358,-0.079
1680104333465774816,-0.077
1680104333473471274,-0.14300000000000002
1680104333481167732,-0.216
1680104333488864190,-0.212
1680104333496560648,-0.193
1680104333504257106,-0.20400000000000001
1680104333511953564,-0.193
1680104333519650022,-0.151
1680104333527346480,-0.115
1680104333535042938,-0.109
1680104333542739396,-0.107
1680104333550435854,-0.073
1680104333558132312,-0.031
1680104333565828770,-0.006
1680104333573525228,0.027
1680104333581221686,0.073
1680104333588918144,0.094
1680104333596614602,0.10300000000000001
1680104333604311060,0.124
1680104333612007518,0.14
1680104333619703976,0.13
1680104333627400434,0.132
1680104333635096892,0.168
1680104333642793350,0.193
1680104333650489808,0.189
1680104333658186266,0.193
1680104333665882724,0.21
1680104333673579182,0.22
1680104333681275640,0.214
1680104333688972098,0.20600000000000002
1680104333696668556,0.22
1680104333704365014,0.252
1680104333712061472,0.252
1680104333719757930,0.218
1680104333727454388,0.195
1680104333735150846,0.21
1680104333742847304,0.225
1680104333750543762,0.222
1680104333758240220,0.233
1680104333765936678,0.252
1680104333773633136,0.248,,733
1680104333781329594,0.23900000000000002
1680104333789026052,0.25
1680104333796722510,0.246
1680104333804418968,0.185
1680104333812115426,0.122
1680104333819811884,0.115
1680104333827508342,0.11900000000000001
1680104333835204800,0.098
1680104333842901258,0.088
1680104333850597716,0.09
1680104333858294174,0.092
1680104333865990632,0.117
1680104333873687090,0.155
1680104333881383548,0.17400000000000002
1680104333889080006,0.18
1680104333896776464,0.189
1680104333904472922,0.197
1680104333912169380,0.20600000000000002
1680104333919865838,0.212
1680104333927562296,0.212
1680104333935258754,0.23500000000000001
1680104333942955212,0.222
1680104333950651702,-0.018000000000000002
1680104333958348160,-0.544
1680104333966044618,-0.9500000000000001
1680104333973741076,-0.631
1680104333981437534,0.28800000000000003
1680104333989133992,0.727
1680104333996830450,0.368
1680104334004526908,0.105
1680104334012223366,0.185
1680104334019919824,0.147
1680104334027616282,0.042
1680104334035312740,0.05
1680104334043009198,0.029
1680104334050705656,-0.054
1680104334058402114,-0.098
1680104334066098572,-0.096
1680104334073795030,-0.113
1680104334081491488,-0.132
1680104334089187946,-0.134
1680104334096884404,-0.14
1680104334104580862,-0.157
1680104334112277320,-0.159
1680104334119973778,-0.14
1680104334127670236,-0.13
1680104334135366694,-0.145
1680104334143063152,-0.164
1680104334150759610,-0.159
1680104334158456068,-0.14300000000000002
1680104334166152526,-0.136
1680104334173848984,-0.132
1680104334181545442,-0.115
1680104334189241900,-0.113
1680104334196938358,-0.115
1680104334204634816,-0.113
1680104334212331274,-0.132
1680104334220027732,-0.159
1680104334227724190,-0.138
1680104334235420648,-0.10300000000000001
1680104334243117106,-0.092
1680104334250813564,-0.077
1680104334258510022,-0.048
1680104334266206480,-0.016
1680104334273902938,0.016
1680104334281599396,0.035
1680104334289295854,0.044
1680104334296992312,0.07100000000000001
1680104334304688770,0.094
1680104334312385228,0.05
1680104334320081686,-0.023
1680104334327778144,-0.037
1680104334335474602,-0.014
1680104334343171060,-0.014
1680104334350867518,-0.016
1680104334358563976,0.004
1680104334366260434,0.023
1680104334373956892,0.023
1680104334381653350,0.027
1680104334389349808,0.046
1680104334397046266,0.073
1680104334404742724,0.09
1680104334412439182,0.09
1680104334420135640,0.1
1680104334427832098,0.11900000000000001
1680104334435528556,0.128
1680104334443225014,0.134
1680104334450921472,0.138
1680104334458617930,0.117
1680104334466314388,0.09
1680104334474010846,0.088
1680104334481707304,0.105
1680104334489403762,0.122
1680104334497100220,0.132
1680104334504796678,0.145,,729
1680104334512493168,0.155,79
1680104334520190044,0.166
1680104334527886920,0.17200000000000001
1680104334535583796,0.166
1680104334543280672,0.168
1680104334550977548,0.157
1680104334558674424,0.094
1680104334566371300,0.061
1680104334574068176,0.115
1680104334581765052,0.161
1680104334589461928,0.151
1680104334597158804,0.149
1680104334604855680,0.164
1680104334612552556,0.168
1680104334620249432,0.168
1680104334627946308,0.185
1680104334635643184,0.218
1680104334643340060,0.22
1680104334651036936,0.035
1680104334658733812,-0.41400000000000003
1680104334666430688,-0.858
1680104334674127564,-0.761
1680104334681824440,0.044
1680104334689521316,0.755
1680104334697218192,0.607
1680104334704915068,0.197
1680104334712611944,0.187
1680104334720308820,0.254
1680104334728005696,0.176
1680104334735702572,0.14
1680104334743399448,0.149
1680104334751096324,0.13
1680104334758793200,0.117
1680104334766490076,0.098
1680104334774186952,0.056
1680104334781883828,0.018000000000000002
1680104334789580704,-0.027
1680104334797277580,-0.07100000000000001
1680104334804974456,-0.084
1680104334812671332,-0.088
1680104334820368208,-0.145
1680104334828065084,-0.231
1680104334835761960,-0.265
1680104334843458836,-0.265
1680104334851155712,-0.275
1680104334858852588,-0.267
1680104334866549464,-0.23700000000000002
1680104334874246340,-0.229
1680104334881943216,-0.23700000000000002
1680104334889640092,-0.231
1680104334897336968,-0.20400000000000001
1680104334905033844,-0.17
1680104334912730720,-0.149
1680104334920427596,-0.14
1680104334928124472,-0.132
1680104334935821348,-0.122
1680104334943518224,-0.126
1680104334951215100,-0.14
1680104334958911976,-0.117
1680104334966608852,-0.069
1680104334974305728,-0.048
1680104334982002604,-0.033
1680104334989699480,0.008
1680104334997396356,0.05
1680104335005093232,0.061
1680104335012790108,0.058
1680104335020486984,0.077
1680104335028183860,0.10300000000000001
1680104335035880736,0.109
1680104335043577612,0.105
1680104335051274488,0.113
1680104335058971364,0.134
1680104335066668240,0.138
1680104335074365152,0.13
1680104335082061610,0.145
1680104335089758068,0.155
1680104335097454526,0.14300000000000002
1680104335105150984,0.138
1680104335112847442,0.155
1680104335120543900,0.155
1680104335128240358,0.11900000000000001
1680104335135936816,0.092
1680104335143633274,0.109
1680104335151329732,0.117
1680104335159026190,0.096
1680104335166722648,0.096
1680104335174419106,0.138
1680104335182115564,0.17
1680104335189812022,0.168
1680104335197508480,0.14300000000000002
1680104335205204938,0.128
1680104335212901396,0.13
1680104335220597854,0.134
1680104335228294312,0.151,,729
1680104335235990770,0.176
1680104335243687228,0.17200000000000001
1680104335251383686,0.145
1680104335259080144,0.145
1680104335266776602,0.159
1680104335274473060,0.178
1680104335282169518,0.216
1680104335289865976,0.244
1680104335297562434,0.23700000000000002
1680104335305258892,0.233
1680104335312955350,0.244
1680104335320651808,0.244
1680104335328348266,0.197
1680104335336044724,0.132
1680104335343741182,0.111
1680104335351437640,0.10300000000000001
1680104335359134098,-0.052000000000000005
1680104335366830556,-0.458
1680104335374527014,-0.873
1680104335382223472,-0.774
1680104335389919930,0.008
1680104335397616388,0.671
1680104335405312846,0.523
1680104335413009304,0.191
1680104335420705762,0.229
1680104335428402220,0.279
1680104335436098678,0.195
1680104335443795136,0.157
1680104335451491594,0.14300000000000002
1680104335459188052,0.092
1680104335466884510,0.077
1680104335474580968,0.094
1680104335482277426,0.07100000000000001
1680104335489973884,0.016
1680104335497670342,-0.014
1680104335505366800,-0.027
1680104335513063258,-0.056
1680104335520759716,-0.10300000000000001
1680104335528456174,-0.128
1680104335536152632,-0.128
1680104335543849090,-0.134
1680104335551545548,-0.149
1680104335559242006,-0.149
1680104335566938464,-0.14
1680104335574634922,-0.151
1680104335582331380,-0.164
1680104335590027838,-0.151
1680104335597724296,-0.128
1680104335605420754,-0.113
1680104335613117212,-0.10300000000000001
1680104335620813670,-0.084
1680104335628510128,-0.061
1680104335636206618,-0.046,80
1680104335643903076,-0.035
1680104335651599534,-0.01
1680104335659295992,0.004
1680104335666992450,-0.031
1680104335674688908,-0.058
1680104335682385366,-0.037
1680104335690081824,-0.029
1680104335697778282,-0.054
1680104335705474740,-0.058
1680104335713171198,-0.044
1680104335720867656,-0.039
1680104335728564114,-0.035
1680104335736260572,-0.021
1680104335743957030,0.002
1680104335751653488,0.012
1680104335759349946,0.0
1680104335767046404,-0.008
1680104335774742862,0.012
1680104335782439320,0.027
1680104335790135778,0.018000000000000002
1680104335797832236,0.027
1680104335805528694,0.05
1680104335813225152,0.052000000000000005
1680104335820921610,0.042
1680104335828618068,0.029
1680104335836314526,0.008
1680104335844010984,-0.004
1680104335851707442,-0.014
1680104335859403900,-0.008
1680104335867100358,0.018000000000000002
1680104335874796816,0.035
1680104335882493274,0.039
1680104335890189732,0.054
1680104335897886190,0.07100000000000001
1680104335905582648,0.07100000000000001
1680104335913279106,0.075
1680104335920975564,0.1
1680104335928672022,0.109
1680104335936368480,0.073
1680104335944064938,0.044,,710
1680104335951761396,0.063
1680104335959457854,0.084
1680104335967154312,0.069
1680104335974850770,0.056
1680104335982547228,0.058
1680104335990243686,0.058
1680104335997940144,0.082
1680104336005636602,0.132
1680104336013333060,0.168
1680104336021029518,0.17400000000000002
1680104336028725976,0.178
1680104336036422434,0.185
1680104336044118892,0.197
1680104336051815350,0.212
1680104336059511808,0.222
1680104336067208266,0.248
1680104336074904724,0.227
1680104336082601182,-0.037
1680104336090297640,-0.551
