ts,red,ir,green
1680104290671607,128874.0,152641.0,11896.0
1680104290682607,128897.0,152638.0,11856.0
1680104290693607,128929.0,152684.0,11851.0
1680104290702607,128880.0,152654.0,11836.0
1680104290712607,128867.0,152614.0,11844.0
1680104290722607,128891.0,152678.0,11856.0
1680104290734607,128851.0,152723.0,11835.0
1680104290744607,128823.0,152667.0,11857.0
1680104290753607,128772.0,152698.0,11838.0
1680104290762607,128791.0,152716.0,11831.0
1680104290774608,128829.0,152743.0,11821.0
1680104290784608,128839.0,152706.0,11832.0
1680104290792607,128835.0,152675.0,11836.0
1680104290802607,128840.0,152744.0,11826.0
1680104290812607,128836.0,152738.0,11822.0
1680104290824607,128846.0,152800.0,11837.0
1680104290834607,128845.0,152742.0,11872.0
1680104290842607,128869.0,152720.0,11857.0
1680104290852607,128836.0,152689.0,11848.0
1680104290864607,128876.0,152756.0,11831.0
1680104290873607,128888.0,152711.0,11832.0
1680104290881607,128846.0,152667.0,11842.0
1680104290892607,128876.0,152736.0,11789.0
1680104290904607,128885.0,152719.0,11832.0
1680104290912607,128885.0,152679.0,11838.0
1680104290921607,128867.0,152716.0,11853.0
1680104290934607,128875.0,152755.0,11814.0
1680104290942607,128864.0,152731.0,11831.0
1680104290952607,128867.0,152755.0,11835.0
1680104290962608,128868.0,152770.0,11835.0
1680104290973608,128858.0,152802.0,11822.0
1680104290982608,128845.0,152754.0,11849.0
1680104290992608,128865.0,152754.0,11817.0
1680104291004608,128842.0,152796.0,11823.0
1680104291012608,128849.0,152768.0,11849.0
1680104291022608,128848.0,152731.0,11825.0
1680104291033608,128881.0,152762.0,11830.0
1680104291043608,128828.0,152688.0,11818.0
1680104291054607,128838.0,152728.0,11815.0
1680104291061607,128822.0,152731.0,11827.0
1680104291072607,128830.0,152724.0,11787.0
1680104291082607,128836.0,152721.0,11827.0
1680104291091607,128784.0,152728.0,11812.0
1680104291101607,128840.0,152720.0,11825.0
1680104291112607,128841.0,152715.0,11812.0
1680104291123607,128808.0,152732.0,11816.0
1680104291131607,128832.0,152709.0,11830.0
1680104291142608,128820.0,152708.0,11828.0
1680104291153607,128849.0,152727.0,11823.0
1680104291163607,128832.0,152698.0,11826.0
1680104291171607,128788.0,152707.0,11813.0
1680104291181607,128825.0,152737.0,11825.0
1680104291193607,128828.0,152751.0,11783.0
1680104291203607,128793.0,152729.0,11809.0
1680104291212607,128843.0,152709.0,11815.0
1680104291221608,128824.0,152744.0,11821.0
1680104291232607,128827.0,152721.0,11825.0
1680104291242607,128861.0,152770.0,11815.0
1680104291252607,128820.0,152723.0,11823.0
1680104291262607,128870.0,152724.0,11834.0
1680104291272607,128879.0,152732.0,11838.0
1680104291284608,128924.0,152746.0,11845.0
1680104291294608,128922.0,152678.0,11890.0
1680104291302607,128911.0,152655.0,11880.0
1680104291311607,128946.0,152604.0,11878.0
1680104291323608,128983.0,152654.0,11849.0
1680104291332608,128992.0,152634.0,11880.0
1680104291341608,128995.0,152631.0,11877.0
1680104291352608,128988.0,152647.0,11882.0
1680104291363608,128976.0,152655.0,11869.0
1680104291372608,128917.0,152651.0,11916.0
1680104291382608,128949.0,152642.0,11869.0
1680104291392608,129003.0,152696.0,11862.0
1680104291403607,128938.0,152742.0,11845.0
1680104291412608,128930.0,152708.0,11867.0
1680104291422608,128872.0,152733.0,11852.0
1680104291432608,128930.0,152760.0,11839.0
1680104291444608,128882.0,152780.0,11830.0
1680104291454608,128864.0,152759.0,11833.0
1680104291462607,128883.0,152739.0,11817.0
1680104291471608,128857.0,152793.0,11795.0
1680104291483608,128848.0,152804.0,11813.0
1680104291492608,128856.0,152795.0,11807.0
1680104291502608,128810.0,152810.0,11830.0
1680104291512608,128859.0,152834.0,11824.0
1680104291522608,128847.0,152828.0,11814.0
1680104291532608,128866.0,152773.0,11814.0
1680104291543608,128906.0,152794.0,11821.0
1680104291551607,128847.0,152847.0,11825.0
1680104291562607,128878.0,152731.0,11841.0
1680104291573607,128917.0,152777.0,11831.0
1680104291582607,128894.0,152793.0,11857.0
1680104291592607,128895.0,152740.0,11809.0
1680104291603607,128897.0,152805.0,11825.0
1680104291612607,128859.0,152754.0,11868.0
1680104291622607,128891.0,152763.0,11840.0
1680104291632607,128916.0,152772.0,11830.0
1680104291642607,128870.0,152800.0,11830.0
1680104291654607,128884.0,152761.0,11822.0
1680104291661607,128854.0,152771.0,11834.0
1680104291671607,128881.0,152766.0,11796.0
1680104291683608,128888.0,152775.0,11831.0
1680104291691608,128840.0,152772.0,11826.0
1680104291702607,128878.0,152798.0,11833.0
1680104291712607,128881.0,152794.0,11830.0
1680104291721608,128924.0,152866.0,11817.0
1680104291732607,128858.0,152804.0,11835.0
1680104291742607,128863.0,152818.0,11811.0
1680104291752607,128906.0,152825.0,11821.0
1680104291763607,128826.0,152852.0,11816.0
1680104291772607,128855.0,152774.0,11836.0
1680104291782607,128822.0,152790.0,11808.0
1680104291794608,128845.0,152850.0,11813.0
1680104291801607,128868.0,152805.0,11824.0
1680104291811607,128840.0,152821.0,11813.0
1680104291823608,128853.0,152817.0,11816.0
1680104291832608,128847.0,152765.0,11842.0
1680104291842608,128819.0,152814.0,11799.0
1680104291851608,128862.0,152812.0,11811.0
1680104291862608,128845.0,152834.0,11811.0
1680104291873607,128882.0,152829.0,11806.0
1680104291881607,128841.0,152830.0,11845.0
1680104291892607,128840.0,152817.0,11811.0
1680104291901607,128881.0,152837.0,11823.0
1680104291912607,128806.0,152870.0,11777.0
1680104291923607,128840.0,152836.0,11814.0
1680104291932607,128812.0,152847.0,11818.0
1680104291941607,128826.0,152839.0,11816.0
1680104291953607,128854.0,152861.0,11776.0
1680104291962607,128869.0,152865.0,11803.0
1680104291971608,128840.0,152862.0,11808.0
1680104291981608,128855.0,152846.0,11820.0
1680104291992607,128875.0,152842.0,11837.0
1680104292002607,128848.0,152839.0,11817.0
1680104292013607,128921.0,152854.0,11833.0
1680104292023607,128856.0,152829.0,11883.0
1680104292032607,128955.0,152774.0,11878.0
1680104292042608,128914.0,152772.0,11878.0
1680104292052608,129020.0,152764.0,11821.0
1680104292062608,128997.0,152751.0,11876.0
1680104292071608,129009.0,152683.0,11877.0
1680104292083608,128984.0,152763.0,11833.0
1680104292093608,129003.0,152749.0,11863.0
1680104292101608,128992.0,152793.0,11872.0
1680104292111608,128997.0,152770.0,11852.0
1680104292122608,128990.0,152804.0,11843.0
1680104292132608,129003.0,152845.0,11856.0
1680104292143607,128870.0,152840.0,11848.0
1680104292152608,128955.0,152824.0,11850.0
1680104292161608,128878.0,152844.0,11833.0
1680104292172608,128926.0,152854.0,11806.0
1680104292183607,128928.0,152820.0,11828.0
1680104292192608,128880.0,152841.0,11833.0
1680104292201608,128874.0,152887.0,11824.0
1680104292212607,128881.0,152895.0,11784.0
1680104292223608,128891.0,152852.0,11815.0
1680104292231608,128901.0,152878.0,11816.0
1680104292242607,128878.0,152885.0,11820.0
1680104292252607,128899.0,152891.0,11801.0
1680104292262607,128925.0,152870.0,11822.0
1680104292272607,128898.0,152880.0,11818.0
1680104292284608,128914.0,152848.0,11819.0
1680104292291607,128905.0,152861.0,11831.0
1680104292301607,128908.0,152844.0,11807.0
1680104292311607,128924.0,152859.0,11798.0
1680104292323608,128935.0,152888.0,11830.0
1680104292332608,128928.0,152826.0,11878.0
1680104292341608,128927.0,152815.0,11843.0
1680104292352608,128974.0,152806.0,11835.0
1680104292362608,128897.0,152835.0,11835.0
1680104292374608,128917.0,152800.0,11834.0
1680104292381608,128890.0,152836.0,11830.0
1680104292391608,128944.0,152795.0,11836.0
1680104292402608,128907.0,152816.0,11790.0
1680104292414608,128912.0,152811.0,11830.0
1680104292421608,128903.0,152792.0,11833.0
1680104292431608,128890.0,152752.0,11823.0
1680104292442608,128917.0,152809.0,11834.0
1680104292452607,128850.0,152859.0,11821.0
1680104292463607,128903.0,152800.0,11824.0
1680104292471607,128843.0,152811.0,11826.0
1680104292481607,128860.0,152773.0,11817.0
1680104292492607,128902.0,152826.0,11784.0
1680104292504607,128910.0,152807.0,11815.0
1680104292511607,128894.0,152776.0,11831.0
1680104292521607,128891.0,152786.0,11809.0
1680104292531607,128897.0,152816.0,11829.0
1680104292543607,128901.0,152849.0,11816.0
1680104292551607,128911.0,152837.0,11823.0
1680104292561607,128905.0,152801.0,11822.0
1680104292572607,128923.0,152839.0,11807.0
1680104292582608,128892.0,152861.0,11818.0
1680104292591608,128877.0,152864.0,11818.0
1680104292601608,128901.0,152828.0,11817.0
1680104292613608,128896.0,152871.0,11811.0
1680104292622608,128888.0,152858.0,11840.0
1680104292631608,128871.0,152852.0,11790.0
1680104292643608,128924.0,152860.0,11809.0
1680104292653608,128857.0,152801.0,11848.0
1680104292662608,128868.0,152845.0,11808.0
1680104292671608,128847.0,152791.0,11816.0
1680104292683608,128885.0,152860.0,11771.0
1680104292693608,128884.0,152841.0,11807.0
1680104292701608,128893.0,152807.0,11815.0
1680104292711608,128915.0,152817.0,11842.0
1680104292721608,128932.0,152810.0,11849.0
1680104292732608,128942.0,152810.0,11838.0
1680104292741608,128982.0,152749.0,11887.0
1680104292752608,129001.0,152706.0,11862.0
1680104292761608,129061.0,152735.0,11860.0
1680104292773608,129034.0,152738.0,11874.0
1680104292783608,129025.0,152689.0,11912.0
1680104292791607,129049.0,152666.0,11857.0
1680104292801607,129010.0,152667.0,11839.0
1680104292812607,129019.0,152697.0,11854.0
1680104292821607,128960.0,152679.0,11867.0
1680104292831607,129011.0,152687.0,11841.0
1680104292842607,129003.0,152700.0,11861.0
1680104292852607,128947.0,152694.0,11849.0
1680104292861607,128973.0,152681.0,11857.0
1680104292871607,128953.0,152704.0,11850.0
1680104292882607,128972.0,152742.0,11825.0
1680104292892607,128961.0,152760.0,11841.0
1680104292901607,128959.0,152744.0,11829.0
1680104292911607,128931.0,152773.0,11830.0
1680104292922607,128908.0,152761.0,11824.0
1680104292930607,128913.0,152770.0,11818.0
1680104292941608,128917.0,152783.0,11826.0
1680104292951608,128912.0,152789.0,11830.0
1680104292962607,128906.0,152831.0,11814.0
1680104292971608,128871.0,152798.0,11872.0
1680104292981608,128923.0,152755.0,11836.0
1680104292992607,128971.0,152799.0,11823.0
1680104293002607,128919.0,152826.0,11824.0
1680104293013607,128928.0,152775.0,11824.0
1680104293020607,128947.0,152702.0,11839.0
1680104293031607,128941.0,152762.0,11817.0
1680104293042607,128943.0,152775.0,11838.0
1680104293051607,128902.0,152768.0,11837.0
1680104293061607,128949.0,152763.0,11838.0
1680104293072607,128947.0,152776.0,11795.0
1680104293082607,128950.0,152744.0,11830.0
1680104293090607,128953.0,152774.0,11841.0
1680104293102607,128915.0,152773.0,11805.0
1680104293112607,128953.0,152770.0,11825.0
1680104293121608,128939.0,152796.0,11824.0
1680104293130608,128930.0,152772.0,11797.0
1680104293143608,128950.0,152808.0,11807.0
1680104293151608,128929.0,152807.0,11826.0
1680104293161608,128928.0,152799.0,11824.0
1680104293171608,128919.0,152817.0,11821.0
1680104293182608,128907.0,152844.0,11820.0
1680104293191608,128923.0,152840.0,11863.0
1680104293201608,128920.0,152835.0,11829.0
1680104293212607,128902.0,152833.0,11819.0
1680104293220607,128926.0,152845.0,11845.0
1680104293231607,128919.0,152824.0,11824.0
1680104293241607,128955.0,152859.0,11823.0
1680104293253607,128930.0,152902.0,11812.0
1680104293261607,128906.0,152859.0,11838.0
1680104293271607,128922.0,152854.0,11794.0
1680104293281607,128960.0,152854.0,11832.0
1680104293293607,128865.0,152894.0,11817.0
1680104293301608,128912.0,152829.0,11838.0
1680104293311608,128852.0,152878.0,11819.0
1680104293323608,128922.0,152882.0,11811.0
1680104293333608,128915.0,152859.0,11833.0
1680104293340608,128907.0,152858.0,11817.0
1680104293351608,128907.0,152850.0,11789.0
1680104293363608,128910.0,152834.0,11820.0
1680104293371608,128877.0,152778.0,11828.0
1680104293380608,128924.0,152881.0,11817.0
1680104293393608,128884.0,152872.0,11811.0
1680104293401608,128921.0,152832.0,11822.0
1680104293411608,128925.0,152866.0,11824.0
1680104293421608,128945.0,152874.0,11835.0
1680104293430608,128949.0,152910.0,11831.0
1680104293441608,128955.0,152852.0,11858.0
1680104293451608,129004.0,152817.0,11862.0
1680104293462607,129052.0,152812.0,11860.0
1680104293472607,129038.0,152816.0,11869.0
1680104293481608,129041.0,152738.0,11909.0
1680104293490608,129073.0,152767.0,11880.0
1680104293502608,129055.0,152746.0,11875.0
1680104293511608,129054.0,152717.0,11874.0
1680104293520608,129019.0,152756.0,11882.0
1680104293532608,129022.0,152759.0,11857.0
1680104293542608,129029.0,152701.0,11867.0
1680104293550608,128991.0,152740.0,11861.0
1680104293561608,128984.0,152789.0,11863.0
1680104293571608,129019.0,152787.0,11853.0
1680104293582608,129032.0,152817.0,11854.0
1680104293590608,128942.0,152849.0,11844.0
1680104293601607,128985.0,152773.0,11853.0
1680104293611607,129022.0,152838.0,11847.0
1680104293622607,128995.0,152873.0,11829.0
1680104293632607,128937.0,152871.0,11823.0
1680104293641607,128927.0,152839.0,11834.0
1680104293651607,128881.0,152867.0,11822.0
1680104293662608,128951.0,152870.0,11827.0
1680104293671608,128923.0,152848.0,11810.0
1680104293681608,128891.0,152888.0,11816.0
1680104293690608,128900.0,152838.0,11829.0
1680104293702608,128945.0,152875.0,11789.0
1680104293712608,128953.0,152835.0,11825.0
1680104293720608,128947.0,152852.0,11819.0
1680104293730608,128944.0,152824.0,11833.0
1680104293741608,128972.0,152831.0,11839.0
1680104293753608,128960.0,152819.0,11836.0
1680104293762608,128936.0,152827.0,11862.0
1680104293771608,128936.0,152806.0,11829.0
1680104293782608,128931.0,152762.0,11829.0
1680104293792608,128949.0,152780.0,11835.0
1680104293801608,128959.0,152810.0,11833.0
1680104293810608,128969.0,152803.0,11839.0
1680104293822608,128936.0,152825.0,11796.0
1680104293832608,128961.0,152804.0,11832.0
1680104293840608,128948.0,152773.0,11831.0
1680104293850608,128961.0,152791.0,11808.0
1680104293862608,128958.0,152803.0,11817.0
1680104293871608,128939.0,152813.0,11823.0
1680104293880608,128953.0,152820.0,11811.0
1680104293892608,128944.0,152829.0,11820.0
1680104293900608,128926.0,152827.0,11829.0
1680104293911608,128893.0,152813.0,11822.0
1680104293921608,128946.0,152814.0,11819.0
1680104293932608,128995.0,152841.0,11812.0
1680104293942608,128927.0,152808.0,11815.0
1680104293951608,128919.0,152783.0,11855.0
1680104293961608,128934.0,152823.0,11797.0
1680104293970608,128929.0,152877.0,11818.0
1680104293980608,128890.0,152814.0,11833.0
1680104293992608,128926.0,152831.0,11794.0
1680104294001608,128909.0,152854.0,11849.0
1680104294011608,128922.0,152790.0,11820.0
1680104294020608,128904.0,152824.0,11812.0
1680104294031607,128922.0,152874.0,11796.0
1680104294041607,128926.0,152844.0,11825.0
1680104294052607,128965.0,152843.0,11832.0
1680104294060607,128923.0,152823.0,11850.0
1680104294071607,128912.0,152786.0,11821.0
1680104294081607,128941.0,152842.0,11790.0
1680104294092607,128952.0,152850.0,11817.0
1680104294100607,128862.0,152859.0,11853.0
1680104294111607,128916.0,152810.0,11821.0
1680104294121607,128967.0,152843.0,11823.0
1680104294131607,128951.0,152848.0,11830.0
1680104294142607,128938.0,152800.0,11821.0
1680104294151607,128914.0,152812.0,11847.0
1680104294161607,128947.0,152790.0,11851.0
1680104294172607,128986.0,152777.0,11846.0
1680104294180607,129008.0,152770.0,11854.0
1680104294190607,129040.0,152724.0,11870.0
1680104294202608,129044.0,152733.0,11865.0
1680104294212608,129051.0,152720.0,11886.0
1680104294220608,129042.0,152690.0,11874.0
1680104294230608,129053.0,152691.0,11840.0
1680104294241608,129062.0,152710.0,11876.0
1680104294251608,128989.0,152715.0,11869.0
1680104294262607,129037.0,152782.0,11866.0
1680104294272607,128976.0,152738.0,11883.0
1680104294281607,129017.0,152734.0,11873.0
1680104294291607,128955.0,152743.0,11855.0
1680104294302607,129009.0,152762.0,11852.0
1680104294312607,128982.0,152731.0,11877.0
1680104294320607,128989.0,152779.0,11828.0
1680104294331607,128946.0,152789.0,11797.0
1680104294340607,128973.0,152812.0,11827.0
1680104294351607,128987.0,152827.0,11815.0
1680104294362607,128941.0,152881.0,11821.0
1680104294371607,128946.0,152836.0,11840.0
1680104294381608,128899.0,152834.0,11821.0
1680104294390608,128929.0,152898.0,11817.0
1680104294401608,128939.0,152830.0,11801.0
1680104294410608,128976.0,152829.0,11823.0
1680104294421608,128909.0,152819.0,11763.0
1680104294432608,128947.0,152818.0,11823.0
1680104294440607,128954.0,152810.0,11837.0
1680104294451607,128941.0,152780.0,11838.0
1680104294461607,128980.0,152807.0,11808.0
1680104294471607,129001.0,152818.0,11842.0
1680104294481607,128928.0,152845.0,11829.0
1680104294491607,128960.0,152792.0,11830.0
1680104294500607,128930.0,152775.0,11843.0
1680104294512607,128995.0,152819.0,11827.0
1680104294522607,128963.0,152763.0,11859.0
1680104294531607,128940.0,152781.0,11841.0
1680104294541607,128934.0,152765.0,11835.0
1680104294550608,128952.0,152828.0,11824.0
1680104294561608,128960.0,152789.0,11819.0
1680104294570608,128994.0,152830.0,11841.0
1680104294582608,128942.0,152811.0,11782.0
1680104294590608,128958.0,152801.0,11833.0
1680104294600608,128887.0,152828.0,11864.0
1680104294610608,128898.0,152849.0,11782.0
1680104294622608,128934.0,152850.0,11786.0
1680104294631608,128867.0,152852.0,11819.0
1680104294640608,128932.0,152816.0,11808.0
1680104294650608,128919.0,152841.0,11818.0
1680104294662608,128929.0,152842.0,11810.0
1680104294671608,128916.0,152805.0,11811.0
1680104294680608,128936.0,152801.0,11813.0
1680104294690608,128929.0,152778.0,11820.0
1680104294702608,128923.0,152826.0,11813.0
1680104294711608,128890.0,152814.0,11877.0
1680104294720608,128925.0,152774.0,11831.0
1680104294731608,128915.0,152814.0,11814.0
1680104294740608,128925.0,152797.0,11819.0
1680104294751608,128925.0,152841.0,11821.0
1680104294759607,128968.0,152820.0,11818.0
1680104294770607,128928.0,152809.0,11774.0
1680104294781607,128914.0,152809.0,11822.0
1680104294793607,128871.0,152815.0,11822.0
1680104294800607,128921.0,152807.0,11822.0
1680104294810607,128903.0,152788.0,11821.0
1680104294821607,128949.0,152830.0,11822.0
1680104294831607,128913.0,152852.0,11820.0
1680104294840607,128923.0,152770.0,11810.0
1680104294850607,128907.0,152839.0,11780.0
1680104294862607,128905.0,152879.0,11806.0
1680104294870607,128874.0,152846.0,11868.0
1680104294880607,128916.0,152807.0,11822.0
1680104294892607,128983.0,152819.0,11831.0
1680104294902607,128905.0,152805.0,11881.0
1680104294911607,128987.0,152758.0,11829.0
1680104294920608,128954.0,152779.0,11858.0
1680104294932608,128980.0,152768.0,11824.0
1680104294942608,129031.0,152692.0,11871.0
1680104294950608,129048.0,152702.0,11883.0
1680104294960608,129029.0,152669.0,11833.0
1680104294970608,129046.0,152687.0,11893.0
1680104294982608,129002.0,152692.0,11863.0
1680104294992608,129044.0,152740.0,11912.0
1680104295001608,129027.0,152678.0,11871.0
1680104295011608,128969.0,152711.0,11856.0
1680104295020608,129023.0,152705.0,11853.0
1680104295030608,128993.0,152676.0,11850.0
1680104295042608,128956.0,152741.0,11842.0
1680104295050608,128989.0,152751.0,11837.0
1680104295060608,128967.0,152768.0,11844.0
1680104295070608,128961.0,152778.0,11826.0
1680104295082608,128959.0,152795.0,11830.0
1680104295090608,128944.0,152818.0,11857.0
1680104295100608,128950.0,152801.0,11834.0
1680104295111608,128973.0,152810.0,11834.0
1680104295121608,128889.0,152857.0,11811.0
1680104295132608,128916.0,152781.0,11811.0
1680104295142608,128898.0,152805.0,11815.0
1680104295150607,128923.0,152808.0,11820.0
1680104295160607,128928.0,152822.0,11824.0
1680104295171607,128939.0,152804.0,11802.0
1680104295182607,128951.0,152826.0,11827.0
1680104295190607,128954.0,152784.0,11840.0
1680104295200607,128944.0,152835.0,11827.0
1680104295212607,128897.0,152779.0,11819.0
1680104295219607,128953.0,152737.0,11827.0
1680104295230607,128947.0,152766.0,11839.0
1680104295241607,128966.0,152786.0,11840.0
1680104295250607,128953.0,152791.0,11826.0
1680104295260607,128958.0,152760.0,11814.0
1680104295270607,128954.0,152783.0,11798.0
1680104295282608,128944.0,152789.0,11825.0
1680104295292608,128941.0,152781.0,11838.0
1680104295300608,128945.0,152768.0,11830.0
1680104295311607,128891.0,152800.0,11838.0
1680104295322607,128925.0,152806.0,11822.0
1680104295331607,128939.0,152761.0,11822.0
1680104295339607,128881.0,152777.0,11829.0
1680104295351607,128897.0,152778.0,11809.0
1680104295361607,128927.0,152733.0,11818.0
1680104295372607,128920.0,152772.0,11812.0
1680104295379607,128916.0,152731.0,11825.0
1680104295390607,128915.0,152766.0,11833.0
1680104295400607,128920.0,152806.0,11791.0
1680104295412607,128913.0,152787.0,11818.0
1680104295421607,128911.0,152795.0,11807.0
1680104295430607,128886.0,152793.0,11848.0
1680104295440607,128914.0,152720.0,11807.0
1680104295452607,128910.0,152793.0,11809.0
1680104295462608,128902.0,152773.0,11837.0
1680104295470608,128912.0,152773.0,11769.0
1680104295480608,128917.0,152734.0,11814.0
1680104295490608,128899.0,152777.0,11801.0
1680104295502608,128919.0,152768.0,11818.0
1680104295509608,128902.0,152773.0,11814.0
1680104295520608,128867.0,152780.0,11829.0
1680104295531607,128900.0,152770.0,11791.0
1680104295540608,128907.0,152772.0,11813.0
1680104295550608,128848.0,152768.0,11822.0
1680104295560608,128904.0,152765.0,11797.0
1680104295571607,128950.0,152777.0,11824.0
1680104295581607,128895.0,152808.0,11812.0
1680104295590608,128888.0,152766.0,11815.0
1680104295600607,128880.0,152772.0,11824.0
1680104295611607,128917.0,152795.0,11812.0
1680104295621607,128885.0,152791.0,11813.0
1680104295632607,128898.0,152754.0,11810.0
1680104295640608,128898.0,152769.0,11813.0
1680104295650608,128898.0,152779.0,11824.0
1680104295661608,128972.0,152762.0,11839.0
1680104295671608,128951.0,152774.0,11841.0
1680104295680608,128965.0,152721.0,11853.0
1680104295690608,128968.0,152674.0,11860.0
1680104295702608,129018.0,152705.0,11861.0
1680104295711608,128998.0,152661.0,11853.0
1680104295720608,128986.0,152639.0,11887.0
1680104295732608,129031.0,152675.0,11874.0
1680104295742608,129015.0,152604.0,11871.0
1680104295751608,129019.0,152655.0,11876.0
1680104295761608,128990.0,152636.0,11865.0
1680104295770608,128987.0,152623.0,11882.0
1680104295780608,128987.0,152664.0,11831.0
1680104295792608,128979.0,152739.0,11849.0
1680104295800608,128935.0,152720.0,11880.0
1680104295810608,128955.0,152697.0,11843.0
1680104295821608,128989.0,152720.0,11830.0
1680104295831608,128907.0,152778.0,11833.0
1680104295840608,128941.0,152715.0,11829.0
1680104295850608,128921.0,152667.0,11822.0
1680104295862608,128895.0,152787.0,11815.0
1680104295871608,128856.0,152735.0,11817.0
1680104295879608,128870.0,152710.0,11823.0
1680104295892608,128899.0,152793.0,11777.0
1680104295900608,128899.0,152789.0,11790.0
1680104295910608,128850.0,152716.0,11815.0
1680104295921608,128906.0,152775.0,11779.0
1680104295930608,128912.0,152748.0,11825.0
1680104295940608,128865.0,152738.0,11843.0
1680104295952608,128872.0,152765.0,11824.0
1680104295960608,128925.0,152701.0,11852.0
1680104295970608,128886.0,152701.0,11843.0
1680104295980608,128926.0,152758.0,11830.0
1680104295990608,128928.0,152742.0,11828.0
1680104296001608,128936.0,152714.0,11841.0
1680104296011608,128926.0,152703.0,11826.0
1680104296020608,128923.0,152717.0,11859.0
1680104296030608,128914.0,152696.0,11839.0
1680104296041607,128950.0,152716.0,11841.0
1680104296051607,128894.0,152733.0,11816.0
1680104296060608,128912.0,152672.0,11857.0
1680104296070608,128885.0,152704.0,11838.0
1680104296082608,128923.0,152760.0,11827.0
1680104296090608,128908.0,152736.0,11858.0
1680104296099608,128903.0,152731.0,11835.0
1680104296111608,128893.0,152733.0,11783.0
1680104296121608,128900.0,152728.0,11815.0
1680104296132608,128858.0,152747.0,11820.0
1680104296139608,128891.0,152735.0,11821.0
1680104296150607,128835.0,152776.0,11827.0
1680104296160607,128891.0,152742.0,11832.0
1680104296171607,128875.0,152738.0,11815.0
1680104296180608,128889.0,152711.0,11812.0
1680104296190608,128873.0,152724.0,11830.0
1680104296200608,128921.0,152746.0,11822.0
1680104296212608,128865.0,152789.0,11812.0
1680104296220608,128882.0,152670.0,11844.0
1680104296229608,128876.0,152751.0,11822.0
1680104296241608,128881.0,152743.0,11821.0
1680104296252608,128871.0,152708.0,11809.0
1680104296259608,128873.0,152714.0,11817.0
1680104296270608,128865.0,152723.0,11796.0
1680104296280608,128879.0,152739.0,11813.0
1680104296290608,128926.0,152730.0,11808.0
1680104296299608,128885.0,152781.0,11809.0
1680104296310608,128842.0,152757.0,11821.0
1680104296320608,128925.0,152753.0,11804.0
1680104296332608,128874.0,152807.0,11815.0
1680104296339608,128852.0,152748.0,11847.0
1680104296350607,128861.0,152736.0,11818.0
1680104296360608,128906.0,152753.0,11821.0
1680104296372608,128882.0,152785.0,11804.0
1680104296381608,128871.0,152703.0,11830.0
1680104296390608,128843.0,152727.0,11830.0
1680104296400608,128858.0,152677.0,11828.0
1680104296412608,128911.0,152737.0,11829.0
1680104296421608,128931.0,152681.0,11823.0
1680104296429608,128921.0,152620.0,11862.0
1680104296441608,128979.0,152656.0,11828.0
1680104296451608,128987.0,152653.0,11871.0
1680104296460608,128990.0,152615.0,11869.0
1680104296470608,128955.0,152611.0,11888.0
1680104296482608,129008.0,152590.0,11872.0
1680104296489608,129000.0,152612.0,11880.0
1680104296500608,129010.0,152604.0,11856.0
1680104296511608,128984.0,152610.0,11858.0
1680104296520608,128944.0,152612.0,11862.0
1680104296530608,128927.0,152589.0,11847.0
1680104296542608,128935.0,152684.0,11851.0
1680104296550608,128940.0,152644.0,11831.0
1680104296559608,128897.0,152654.0,11851.0
1680104296571608,128930.0,152692.0,11796.0
1680104296581608,128937.0,152670.0,11834.0
1680104296590608,128908.0,152710.0,11828.0
1680104296599608,128902.0,152720.0,11832.0
1680104296611608,128899.0,152717.0,11797.0
1680104296622608,128867.0,152733.0,11818.0
1680104296629608,128883.0,152715.0,11818.0
1680104296640608,128874.0,152748.0,11831.0
1680104296652608,128883.0,152730.0,11806.0
1680104296660608,128880.0,152739.0,11820.0
1680104296670608,128898.0,152706.0,11805.0
1680104296680608,128889.0,152730.0,11826.0
1680104296690608,128876.0,152724.0,11816.0
1680104296700608,128910.0,152748.0,11829.0
1680104296710608,128895.0,152706.0,11829.0
1680104296720608,128900.0,152726.0,11822.0
1680104296730608,128906.0,152738.0,11825.0
1680104296742608,128909.0,152753.0,11830.0
1680104296752608,128910.0,152704.0,11845.0
1680104296759608,128902.0,152705.0,11827.0
1680104296769608,128898.0,152718.0,11845.0
1680104296780608,128897.0,152709.0,11837.0
1680104296792608,128890.0,152708.0,11831.0
1680104296799608,128883.0,152703.0,11864.0
1680104296810608,128895.0,152694.0,11810.0
1680104296820608,128919.0,152717.0,11830.0
1680104296832608,128845.0,152763.0,11822.0
1680104296840608,128879.0,152666.0,11842.0
1680104296849608,128862.0,152724.0,11832.0
1680104296860607,128882.0,152735.0,11786.0
1680104296872608,128889.0,152695.0,11819.0
1680104296879608,128862.0,152697.0,11825.0
1680104296889608,128860.0,152719.0,11831.0
1680104296901608,128871.0,152740.0,11795.0
1680104296910608,128864.0,152677.0,11812.0
1680104296920608,128860.0,152717.0,11821.0
1680104296930608,128865.0,152747.0,11809.0
1680104296940608,128862.0,152742.0,11804.0
1680104296950608,128817.0,152772.0,11803.0
1680104296960608,128861.0,152668.0,11807.0
1680104296970608,128908.0,152719.0,11829.0
1680104296980608,128828.0,152763.0,11804.0
1680104296992608,128856.0,152687.0,11813.0
1680104296999608,128856.0,152726.0,11816.0
1680104297009608,128863.0,152706.0,11812.0
1680104297021608,128852.0,152722.0,11780.0
1680104297031608,128820.0,152723.0,11804.0
1680104297040608,128841.0,152727.0,11844.0
1680104297049608,128839.0,152685.0,11818.0
1680104297061608,128837.0,152730.0,11812.0
1680104297069608,128820.0,152682.0,11833.0
1680104297080608,128829.0,152685.0,11809.0
1680104297089608,128847.0,152707.0,11780.0
1680104297101608,128839.0,152744.0,11802.0
1680104297110608,128826.0,152679.0,11850.0
1680104297120608,128835.0,152685.0,11766.0
1680104297130608,128872.0,152702.0,11803.0
1680104297139608,128793.0,152730.0,11815.0
1680104297150608,128841.0,152684.0,11809.0
1680104297161608,128867.0,152679.0,11821.0
1680104297170608,128858.0,152660.0,11865.0
1680104297179608,128839.0,152636.0,11834.0
1680104297190608,128899.0,152612.0,11799.0
1680104297202608,128913.0,152569.0,11861.0
1680104297210608,128906.0,152569.0,11875.0
1680104297219608,128949.0,152540.0,11882.0
1680104297230608,128972.0,152545.0,11850.0
1680104297239608,128964.0,152539.0,11872.0
1680104297250608,128957.0,152522.0,11872.0
1680104297259608,128964.0,152541.0,11859.0
1680104297271608,128897.0,152557.0,11859.0
1680104297281608,128941.0,152547.0,11856.0
1680104297290608,128914.0,152567.0,11887.0
1680104297299608,128906.0,152580.0,11834.0
1680104297311608,128918.0,152638.0,11842.0
1680104297322608,128895.0,152605.0,11866.0
1680104297329608,128897.0,152622.0,11858.0
1680104297339608,128900.0,152625.0,11812.0
1680104297350608,128873.0,152624.0,11844.0
1680104297359608,128822.0,152634.0,11826.0
1680104297369608,128865.0,152648.0,11802.0
1680104297379608,128844.0,152664.0,11813.0
1680104297390608,128819.0,152677.0,11803.0
1680104297399608,128815.0,152679.0,11822.0
1680104297411608,128829.0,152669.0,11784.0
1680104297421608,128838.0,152663.0,11807.0
1680104297429608,128828.0,152589.0,11815.0
1680104297439608,128839.0,152631.0,11771.0
1680104297450608,128850.0,152630.0,11826.0
1680104297461608,128848.0,152635.0,11817.0
1680104297469607,128830.0,152607.0,11861.0
1680104297479607,128864.0,152576.0,11821.0
1680104297490607,128902.0,152606.0,11841.0
1680104297502607,128879.0,152606.0,11840.0
1680104297509607,128876.0,152564.0,11856.0
1680104297519607,128859.0,152591.0,11832.0
1680104297530607,128833.0,152597.0,11823.0
1680104297542607,128843.0,152553.0,11827.0
1680104297549607,128834.0,152593.0,11803.0
1680104297559607,128841.0,152580.0,11826.0
1680104297571607,128838.0,152599.0,11786.0
1680104297580608,128849.0,152593.0,11794.0
1680104297589608,128783.0,152536.0,11834.0
1680104297600607,128804.0,152598.0,11790.0
1680104297611607,128820.0,152604.0,11815.0
1680104297619608,128808.0,152575.0,11820.0
1680104297629608,128810.0,152577.0,11821.0
1680104297641608,128820.0,152600.0,11803.0
1680104297649608,128813.0,152565.0,11819.0
1680104297659608,128810.0,152603.0,11818.0
1680104297670607,128823.0,152604.0,11809.0
1680104297681607,128849.0,152608.0,11821.0
1680104297691607,128823.0,152592.0,11814.0
1680104297700607,128818.0,152589.0,11822.0
1680104297709607,128767.0,152600.0,11807.0
1680104297720607,128817.0,152616.0,11801.0
1680104297730607,128799.0,152579.0,11809.0
1680104297742607,128802.0,152597.0,11806.0
1680104297749607,128788.0,152584.0,11822.0
1680104297759607,128799.0,152601.0,11820.0
1680104297771608,128782.0,152592.0,11796.0
1680104297781607,128793.0,152499.0,11810.0
1680104297790608,128799.0,152574.0,11824.0
1680104297799608,128739.0,152575.0,11824.0
1680104297811608,128803.0,152599.0,11800.0
1680104297820608,128789.0,152554.0,11827.0
1680104297829608,128721.0,152576.0,11804.0
1680104297840608,128796.0,152582.0,11797.0
1680104297850608,128789.0,152555.0,11813.0
1680104297859608,128756.0,152551.0,11798.0
1680104297870608,128793.0,152521.0,11769.0
1680104297879608,128781.0,152567.0,11810.0
1680104297891608,128820.0,152605.0,11799.0
1680104297901608,128790.0,152581.0,11840.0
1680104297910608,128779.0,152571.0,11819.0
1680104297919608,128726.0,152595.0,11805.0
1680104297930608,128790.0,152613.0,11779.0
1680104297941608,128791.0,152568.0,11804.0
1680104297949608,128789.0,152562.0,11826.0
1680104297959608,128791.0,152563.0,11829.0
1680104297970608,128836.0,152527.0,11831.0
1680104297979608,128854.0,152514.0,11838.0
1680104297989608,128867.0,152449.0,11836.0
1680104298001608,128901.0,152472.0,11842.0
1680104298008608,128910.0,152444.0,11866.0
1680104298019608,128916.0,152439.0,11869.0
1680104298030608,128920.0,152454.0,11868.0
1680104298039608,128871.0,152451.0,11864.0
1680104298049608,128894.0,152446.0,11839.0
1680104298059608,128901.0,152440.0,11869.0
1680104298070608,128821.0,152460.0,11844.0
1680104298079608,128888.0,152381.0,11846.0
1680104298089608,128838.0,152443.0,11827.0
1680104298099608,128850.0,152458.0,11843.0
1680104298111608,128816.0,152471.0,11829.0
1680104298119608,128850.0,152461.0,11827.0
1680104298129608,128812.0,152459.0,11828.0
1680104298140607,128836.0,152491.0,11792.0
1680104298149608,128818.0,152477.0,11815.0
1680104298159608,128792.0,152498.0,11824.0
1680104298170607,128788.0,152501.0,11805.0
1680104298178607,128780.0,152510.0,11812.0
1680104298188607,128780.0,152505.0,11824.0
1680104298199607,128786.0,152535.0,11816.0
1680104298209607,128776.0,152566.0,11806.0
1680104298220607,128750.0,152558.0,11809.0
1680104298230607,128785.0,152439.0,11801.0
1680104298238607,128781.0,152414.0,11817.0
1680104298248607,128788.0,152491.0,11784.0
1680104298260607,128797.0,152465.0,11812.0
1680104298268607,128790.0,152439.0,11832.0
1680104298278607,128798.0,152442.0,11810.0
1680104298289607,128811.0,152461.0,11843.0
1680104298298607,128809.0,152457.0,11818.0
1680104298310607,128802.0,152510.0,11823.0
1680104298320607,128796.0,152429.0,11847.0
1680104298329607,128784.0,152433.0,11806.0
1680104298339608,128761.0,152424.0,11830.0
1680104298351608,128781.0,152458.0,11767.0
1680104298360608,128793.0,152451.0,11823.0
1680104298369608,128769.0,152427.0,11833.0
1680104298380608,128775.0,152445.0,11789.0
1680104298389608,128783.0,152438.0,11808.0
1680104298399608,128729.0,152426.0,11826.0
1680104298410608,128740.0,152455.0,11774.0
1680104298421608,128771.0,152455.0,11808.0
1680104298429607,128763.0,152448.0,11821.0
1680104298439607,128763.0,152466.0,11780.0
1680104298450607,128775.0,152477.0,11821.0
1680104298459607,128759.0,152471.0,11801.0
1680104298469607,128771.0,152463.0,11803.0
1680104298480607,128762.0,152462.0,11778.0
1680104298490607,128757.0,152455.0,11804.0
1680104298499607,128751.0,152408.0,11818.0
1680104298511608,128741.0,152458.0,11780.0
1680104298521608,128714.0,152434.0,11824.0
1680104298529608,128760.0,152383.0,11806.0
1680104298539608,128758.0,152441.0,11801.0
1680104298549608,128745.0,152438.0,11818.0
1680104298559608,128740.0,152439.0,11802.0
1680104298569608,128716.0,152455.0,11822.0
1680104298580608,128750.0,152422.0,11815.0
1680104298589608,128744.0,152432.0,11807.0
1680104298599608,128746.0,152472.0,11812.0
1680104298609608,128749.0,152437.0,11800.0
1680104298620607,128756.0,152452.0,11765.0
1680104298629608,128736.0,152490.0,11805.0
1680104298639608,128712.0,152452.0,11806.0
1680104298649608,128743.0,152414.0,11822.0
1680104298661608,128733.0,152464.0,11805.0
1680104298671608,128739.0,152437.0,11814.0
1680104298679607,128736.0,152441.0,11839.0
1680104298689607,128740.0,152444.0,11783.0
1680104298701608,128732.0,152450.0,11807.0
1680104298710608,128722.0,152459.0,11847.0
1680104298719608,128707.0,152436.0,11797.0
1680104298731608,128746.0,152509.0,11808.0
1680104298741608,128730.0,152430.0,11870.0
1680104298750608,128717.0,152387.0,11832.0
1680104298760608,128759.0,152342.0,11845.0
1680104298769608,128806.0,152380.0,11878.0
1680104298779608,128787.0,152366.0,11860.0
1680104298789608,128823.0,152330.0,11838.0
1680104298801608,128841.0,152312.0,11828.0
1680104298811608,128797.0,152298.0,11875.0
1680104298819608,128850.0,152256.0,11867.0
1680104298829608,128856.0,152310.0,11864.0
1680104298839608,128857.0,152307.0,11857.0
1680104298850608,128829.0,152332.0,11842.0
1680104298859608,128825.0,152319.0,11849.0
1680104298869608,128811.0,152346.0,11851.0
1680104298879608,128807.0,152342.0,11845.0
1680104298889608,128786.0,152383.0,11824.0
1680104298899608,128782.0,152358.0,11836.0
1680104298909608,128818.0,152378.0,11814.0
1680104298920607,128771.0,152410.0,11818.0
1680104298929607,128754.0,152402.0,11820.0
1680104298939607,128761.0,152404.0,11802.0
1680104298949607,128780.0,152425.0,11843.0
1680104298961608,128743.0,152407.0,11778.0
1680104298969607,128716.0,152405.0,11821.0
1680104298979607,128738.0,152381.0,11811.0
1680104298989607,128735.0,152411.0,11777.0
1680104299001608,128738.0,152411.0,11793.0
1680104299008607,128738.0,152391.0,11836.0
1680104299019607,128739.0,152398.0,11788.0
1680104299029607,128754.0,152387.0,11818.0
1680104299040607,128781.0,152392.0,11774.0
1680104299049607,128779.0,152431.0,11812.0
1680104299061608,128759.0,152409.0,11815.0
1680104299069608,128761.0,152372.0,11810.0
1680104299079608,128744.0,152368.0,11834.0
1680104299089608,128778.0,152411.0,11820.0
1680104299100607,128769.0,152435.0,11818.0
1680104299109608,128722.0,152407.0,11867.0
1680104299119608,128767.0,152384.0,11822.0
1680104299130607,128767.0,152451.0,11814.0
1680104299138607,128773.0,152445.0,11821.0
1680104299149607,128767.0,152416.0,11819.0
1680104299160607,128757.0,152459.0,11808.0
1680104299171607,128767.0,152489.0,11802.0
1680104299179607,128753.0,152476.0,11823.0
1680104299189607,128752.0,152448.0,11812.0
1680104299200607,128784.0,152461.0,11810.0
1680104299211607,128754.0,152523.0,11800.0
1680104299219607,128741.0,152404.0,11827.0
1680104299229607,128741.0,152424.0,11817.0
1680104299240608,128764.0,152448.0,11811.0
1680104299250608,128732.0,152466.0,11798.0
1680104299259608,128745.0,152427.0,11806.0
1680104299269608,128715.0,152421.0,11817.0
1680104299281608,128720.0,152399.0,11799.0
1680104299290608,128717.0,152429.0,11792.0
1680104299298608,128701.0,152403.0,11807.0
1680104299310608,128713.0,152433.0,11764.0
1680104299320608,128734.0,152450.0,11800.0
1680104299329608,128715.0,152440.0,11803.0
1680104299338608,128742.0,152427.0,11815.0
1680104299350608,128745.0,152432.0,11811.0
1680104299360608,128686.0,152441.0,11808.0
1680104299369608,128708.0,152418.0,11805.0
1680104299379608,128703.0,152470.0,11812.0
1680104299390608,128743.0,152461.0,11814.0
1680104299400608,128738.0,152489.0,11797.0
1680104299409608,128749.0,152474.0,11802.0
1680104299419608,128710.0,152495.0,11808.0
1680104299429608,128739.0,152509.0,11819.0
1680104299440608,128744.0,152567.0,11802.0
1680104299449608,128727.0,152541.0,11828.0
1680104299459608,128730.0,152559.0,11810.0
1680104299470608,128719.0,152576.0,11787.0
1680104299479608,128738.0,152500.0,11819.0
1680104299489608,128725.0,152545.0,11713.0
1680104299499608,128734.0,152561.0,11769.0
1680104299510608,128760.0,152526.0,11772.0
1680104299518607,128727.0,152531.0,11810.0
1680104299529607,128772.0,152479.0,11797.0
1680104299539607,128800.0,152499.0,11836.0
1680104299551607,128795.0,152472.0,11832.0
1680104299558607,128843.0,152439.0,11850.0
1680104299569607,128819.0,152419.0,11858.0
1680104299579607,128869.0,152404.0,11862.0
1680104299590607,128870.0,152378.0,11857.0
1680104299600608,128878.0,152360.0,11862.0
1680104299609608,128863.0,152388.0,11894.0
1680104299619608,128851.0,152366.0,11853.0
1680104299630608,128868.0,152443.0,11850.0
1680104299639608,128820.0,152423.0,11873.0
1680104299649608,128841.0,152416.0,11848.0
1680104299660608,128856.0,152438.0,11848.0
1680104299670608,128819.0,152484.0,11832.0
1680104299679608,128825.0,152464.0,11830.0
1680104299689608,128755.0,152493.0,11832.0
1680104299700608,128829.0,152504.0,11827.0
1680104299710608,128790.0,152495.0,11814.0
1680104299721608,128740.0,152508.0,11813.0
1680104299728608,128787.0,152504.0,11809.0
1680104299739607,128780.0,152554.0,11805.0
1680104299749607,128767.0,152588.0,11816.0
1680104299758607,128740.0,152573.0,11803.0
1680104299768607,128780.0,152557.0,11780.0
1680104299780608,128773.0,152582.0,11764.0
1680104299791607,128754.0,152560.0,11799.0
1680104299798607,128787.0,152562.0,11813.0
1680104299808607,128790.0,152574.0,11804.0
1680104299820608,128798.0,152563.0,11804.0
1680104299830608,128788.0,152490.0,11810.0
1680104299838607,128761.0,152562.0,11860.0
1680104299849607,128797.0,152498.0,11827.0
1680104299859607,128841.0,152538.0,11824.0
1680104299871607,128763.0,152558.0,11816.0
1680104299880607,128799.0,152503.0,11845.0
1680104299889608,128772.0,152510.0,11823.0
1680104299899608,128797.0,152463.0,11829.0
1680104299911608,128796.0,152550.0,11806.0
1680104299921608,128797.0,152518.0,11836.0
1680104299929607,128759.0,152517.0,11821.0
1680104299939607,128797.0,152469.0,11815.0
1680104299951608,128780.0,152510.0,11804.0
1680104299961608,128790.0,152513.0,11812.0
1680104299968608,128797.0,152527.0,11813.0
1680104299979607,128794.0,152492.0,11799.0
1680104299991608,128786.0,152523.0,11813.0
1680104299999607,128743.0,152560.0,11821.0
1680104300009607,128755.0,152518.0,11819.0
1680104300021608,128778.0,152538.0,11808.0
1680104300028607,128722.0,152548.0,11816.0
1680104300039607,128769.0,152527.0,11788.0
1680104300048607,128782.0,152547.0,11811.0
1680104300060608,128746.0,152559.0,11800.0
1680104300070608,128787.0,152554.0,11806.0
1680104300079608,128759.0,152554.0,11841.0
1680104300088608,128764.0,152550.0,11818.0
1680104300098608,128770.0,152548.0,11804.0
1680104300108608,128778.0,152552.0,11765.0
1680104300119608,128782.0,152562.0,11802.0
1680104300130607,128728.0,152584.0,11801.0
1680104300138608,128779.0,152531.0,11804.0
1680104300149608,128785.0,152525.0,11815.0
1680104300159608,128783.0,152563.0,11797.0
1680104300171608,128791.0,152610.0,11811.0
1680104300178608,128776.0,152583.0,11825.0
1680104300189607,128784.0,152547.0,11792.0
1680104300199607,128818.0,152577.0,11813.0
1680104300211608,128768.0,152609.0,11808.0
1680104300219607,128766.0,152575.0,11805.0
1680104300228608,128789.0,152516.0,11809.0
1680104300240608,128773.0,152609.0,11775.0
1680104300250608,128778.0,152584.0,11800.0
1680104300258607,128782.0,152584.0,11807.0
1680104300268607,128788.0,152567.0,11812.0
1680104300279607,128783.0,152578.0,11799.0
1680104300289607,128779.0,152583.0,11799.0
1680104300298607,128805.0,152555.0,11786.0
1680104300309607,128811.0,152566.0,11832.0
1680104300318608,128831.0,152545.0,11831.0
1680104300329608,128865.0,152508.0,11821.0
1680104300338608,128875.0,152523.0,11848.0
1680104300348608,128889.0,152486.0,11854.0
1680104300358608,128920.0,152456.0,11821.0
1680104300370608,128904.0,152465.0,11843.0
1680104300380608,128884.0,152472.0,11868.0
1680104300388608,128938.0,152408.0,11873.0
1680104300399608,128923.0,152479.0,11857.0
1680104300409608,128898.0,152471.0,11855.0
1680104300421608,128907.0,152552.0,11851.0
1680104300428608,128889.0,152466.0,11877.0
1680104300439607,128889.0,152512.0,11825.0
1680104300450607,128926.0,152520.0,11850.0
1680104300460607,128875.0,152541.0,11833.0
1680104300468607,128868.0,152565.0,11832.0
1680104300478607,128877.0,152573.0,11804.0
1680104300490607,128858.0,152579.0,11803.0
1680104300500608,128860.0,152618.0,11818.0
1680104300508607,128852.0,152620.0,11819.0
1680104300518607,128845.0,152595.0,11829.0
1680104300529607,128877.0,152632.0,11811.0
1680104300540607,128850.0,152642.0,11821.0
1680104300548607,128821.0,152611.0,11810.0
1680104300559607,128826.0,152623.0,11792.0
1680104300568607,128857.0,152639.0,11817.0
1680104300580607,128839.0,152628.0,11796.0
1680104300590607,128830.0,152610.0,11809.0
1680104300600607,128818.0,152608.0,11849.0
1680104300609607,128846.0,152582.0,11812.0
1680104300618607,128827.0,152601.0,11823.0
1680104300629607,128809.0,152605.0,11808.0
1680104300640607,128850.0,152529.0,11814.0
1680104300649607,128844.0,152592.0,11814.0
1680104300659607,128816.0,152526.0,11826.0
1680104300671607,128858.0,152578.0,11819.0
1680104300679608,128872.0,152592.0,11820.0
1680104300688608,128805.0,152580.0,11826.0
1680104300699608,128860.0,152618.0,11795.0
1680104300711608,128860.0,152596.0,11822.0
1680104300718608,128858.0,152621.0,11824.0
1680104300728608,128860.0,152573.0,11797.0
1680104300739608,128867.0,152648.0,11815.0
1680104300749608,128831.0,152646.0,11792.0
1680104300758608,128843.0,152690.0,11804.0
1680104300768608,128814.0,152647.0,11815.0
1680104300779608,128854.0,152668.0,11815.0
1680104300790608,128851.0,152714.0,11812.0
1680104300798607,128833.0,152674.0,11840.0
1680104300808607,128846.0,152652.0,11808.0
1680104300819607,128859.0,152679.0,11809.0
1680104300829607,128830.0,152701.0,11813.0
1680104300838607,128822.0,152626.0,11813.0
1680104300849607,128873.0,152672.0,11819.0
1680104300858608,128849.0,152626.0,11808.0
1680104300869608,128834.0,152648.0,11804.0
1680104300879608,128892.0,152652.0,11816.0
1680104300888608,128853.0,152677.0,11807.0
1680104300898608,128837.0,152642.0,11806.0
1680104300910608,128822.0,152641.0,11804.0
1680104300919608,128834.0,152604.0,11803.0
1680104300928608,128841.0,152622.0,11780.0
1680104300940608,128803.0,152644.0,11798.0
1680104300948608,128844.0,152573.0,11807.0
1680104300959608,128800.0,152611.0,11812.0
1680104300968608,128832.0,152618.0,11813.0
1680104300980608,128832.0,152637.0,11814.0
1680104300990608,128835.0,152648.0,11823.0
1680104300999608,128820.0,152601.0,11841.0
1680104301009608,128842.0,152647.0,11784.0
1680104301018608,128828.0,152607.0,11805.0
1680104301028608,128804.0,152639.0,11814.0
1680104301040608,128850.0,152652.0,11782.0
1680104301048607,128834.0,152676.0,11808.0
1680104301058607,128832.0,152650.0,11802.0
1680104301068607,128839.0,152645.0,11808.0
1680104301080608,128828.0,152678.0,11801.0
1680104301088607,128838.0,152645.0,11807.0
1680104301098607,128839.0,152643.0,11812.0
1680104301109607,128881.0,152631.0,11838.0
1680104301119607,128904.0,152653.0,11834.0
1680104301130607,128914.0,152614.0,11845.0
1680104301138607,128943.0,152576.0,11872.0
1680104301149607,128961.0,152552.0,11866.0
1680104301159607,128978.0,152528.0,11870.0
1680104301171607,128953.0,152542.0,11864.0
1680104301178607,128954.0,152515.0,11870.0
1680104301188607,128974.0,152502.0,11829.0
1680104301199607,128952.0,152525.0,11862.0
1680104301209607,128931.0,152554.0,11851.0
1680104301218608,128937.0,152584.0,11845.0
1680104301229607,128902.0,152591.0,11855.0
1680104301238608,128946.0,152573.0,11845.0
1680104301250608,128917.0,152620.0,11811.0
1680104301260608,128903.0,152590.0,11825.0
1680104301268607,128883.0,152532.0,11831.0
1680104301278607,128891.0,152605.0,11794.0
1680104301289607,128889.0,152654.0,11839.0
1680104301299607,128883.0,152677.0,11816.0
1680104301308607,128841.0,152650.0,11877.0
1680104301318607,128870.0,152600.0,11816.0
1680104301329607,128902.0,152666.0,11819.0
1680104301338607,128872.0,152723.0,11813.0
1680104301348607,128858.0,152660.0,11811.0
1680104301359607,128865.0,152653.0,11830.0
1680104301369607,128872.0,152711.0,11808.0
1680104301380607,128865.0,152659.0,11812.0
1680104301388607,128854.0,152620.0,11824.0
1680104301398608,128847.0,152579.0,11806.0
1680104301410608,128876.0,152616.0,11783.0
1680104301419608,128852.0,152608.0,11838.0
1680104301429608,128848.0,152558.0,11836.0
1680104301439608,128898.0,152628.0,11825.0
1680104301450608,128869.0,152584.0,11828.0
1680104301458608,128890.0,152542.0,11821.0
1680104301468608,128885.0,152628.0,11826.0
1680104301479607,128904.0,152604.0,11817.0
1680104301488608,128894.0,152583.0,11823.0
1680104301498607,128905.0,152622.0,11806.0
1680104301510608,128872.0,152621.0,11801.0
1680104301520608,128862.0,152613.0,11828.0
1680104301528607,128891.0,152583.0,11819.0
1680104301539607,128880.0,152629.0,11825.0
1680104301548607,128887.0,152643.0,11808.0
1680104301558607,128910.0,152636.0,11813.0
1680104301568607,128873.0,152632.0,11825.0
1680104301579608,128889.0,152637.0,11805.0
1680104301588608,128867.0,152672.0,11814.0
1680104301598608,128825.0,152686.0,11810.0
1680104301608608,128881.0,152591.0,11829.0
1680104301620608,128879.0,152637.0,11816.0
1680104301629608,128879.0,152634.0,11809.0
1680104301638608,128856.0,152640.0,11856.0
1680104301648608,128878.0,152622.0,11820.0
1680104301658608,128901.0,152639.0,11824.0
1680104301670608,128865.0,152648.0,11768.0
1680104301678608,128878.0,152610.0,11826.0
1680104301688608,128871.0,152638.0,11817.0
1680104301698608,128889.0,152637.0,11813.0
1680104301710608,128863.0,152634.0,11785.0
1680104301720608,128838.0,152624.0,11813.0
1680104301728608,128877.0,152597.0,11822.0
1680104301738608,128867.0,152643.0,11801.0
1680104301749608,128926.0,152661.0,11827.0
1680104301758608,128885.0,152695.0,11810.0
1680104301768608,128863.0,152631.0,11823.0
1680104301780608,128888.0,152723.0,11808.0
1680104301790608,128849.0,152661.0,11847.0
1680104301798608,128861.0,152660.0,11832.0
1680104301808608,128831.0,152673.0,11817.0
1680104301820608,128869.0,152695.0,11808.0
1680104301829608,128853.0,152647.0,11837.0
1680104301838608,128834.0,152679.0,11819.0
1680104301848608,128892.0,152657.0,11830.0
1680104301858608,128884.0,152634.0,11835.0
1680104301869608,128939.0,152620.0,11802.0
1680104301879608,128932.0,152648.0,11837.0
1680104301888608,128905.0,152604.0,11844.0
1680104301898608,128972.0,152570.0,11865.0
1680104301909608,129034.0,152544.0,11884.0
1680104301919608,128992.0,152556.0,11862.0
1680104301930608,129000.0,152527.0,11868.0
1680104301940608,128937.0,152522.0,11879.0
1680104301948608,128991.0,152457.0,11880.0
1680104301958608,128993.0,152546.0,11874.0
1680104301969607,128969.0,152551.0,11855.0
1680104301978608,128959.0,152504.0,11857.0
1680104301988608,128943.0,152599.0,11857.0
1680104301999607,128950.0,152567.0,11856.0
1680104302009607,128954.0,152608.0,11839.0
1680104302018607,128922.0,152612.0,11874.0
1680104302028607,128943.0,152594.0,11842.0
1680104302039607,128974.0,152648.0,11838.0
1680104302049607,128914.0,152686.0,11820.0
1680104302058607,128918.0,152601.0,11832.0
1680104302068607,128898.0,152679.0,11811.0
1680104302079607,128926.0,152687.0,11827.0
1680104302088607,128904.0,152723.0,11811.0
1680104302098607,128905.0,152681.0,11815.0
1680104302110607,128935.0,152711.0,11812.0
1680104302118608,128915.0,152686.0,11831.0
1680104302129608,128919.0,152679.0,11816.0
1680104302139608,128933.0,152692.0,11832.0
1680104302148608,128928.0,152701.0,11857.0
1680104302159608,128933.0,152651.0,11817.0
1680104302168608,128963.0,152696.0,11819.0
1680104302179607,128912.0,152666.0,11793.0
1680104302188608,128924.0,152654.0,11855.0
1680104302199607,128888.0,152674.0,11834.0
1680104302208608,128961.0,152675.0,11836.0
1680104302218608,128936.0,152659.0,11804.0
1680104302228608,128943.0,152628.0,11816.0
1680104302239607,128982.0,152659.0,11822.0
1680104302249607,128920.0,152704.0,11819.0
1680104302258607,128932.0,152623.0,11818.0
1680104302268607,128917.0,152668.0,11803.0
1680104302279607,128965.0,152682.0,11823.0
1680104302289607,128887.0,152739.0,11827.0
1680104302298608,128916.0,152682.0,11823.0
1680104302307608,128869.0,152682.0,11824.0
1680104302319608,128915.0,152693.0,11784.0
1680104302329608,128895.0,152689.0,11811.0
1680104302337608,128915.0,152661.0,11818.0
1680104302350608,128918.0,152713.0,11787.0
1680104302360608,128910.0,152719.0,11805.0
1680104302368608,128892.0,152699.0,11809.0
1680104302378608,128903.0,152700.0,11772.0
1680104302388608,128901.0,152720.0,11818.0
1680104302398608,128870.0,152717.0,11803.0
1680104302410608,128906.0,152746.0,11814.0
1680104302420608,128873.0,152714.0,11848.0
1680104302428608,128899.0,152657.0,11846.0
1680104302438608,128913.0,152676.0,11816.0
1680104302449607,128935.0,152698.0,11802.0
1680104302459607,128896.0,152731.0,11805.0
1680104302469607,128893.0,152687.0,11807.0
1680104302478608,128862.0,152698.0,11813.0
1680104302488608,128870.0,152695.0,11814.0
1680104302500608,128896.0,152696.0,11801.0
1680104302507608,128895.0,152692.0,11817.0
1680104302518607,128890.0,152720.0,11806.0
1680104302528607,128906.0,152710.0,11787.0
1680104302540608,128891.0,152710.0,11804.0
1680104302549608,128889.0,152706.0,11805.0
1680104302558608,128885.0,152660.0,11842.0
1680104302568608,128877.0,152714.0,11783.0
1680104302579608,128931.0,152731.0,11808.0
1680104302589608,128881.0,152675.0,11807.0
1680104302598608,128907.0,152694.0,11803.0
1680104302608608,128865.0,152682.0,11826.0
1680104302620608,128920.0,152716.0,11820.0
1680104302628608,128937.0,152648.0,11847.0
1680104302638608,128901.0,152640.0,11850.0
1680104302649608,129011.0,152618.0,11853.0
1680104302658608,128992.0,152613.0,11892.0
1680104302669608,129021.0,152586.0,11850.0
1680104302679607,129020.0,152586.0,11862.0
1680104302688608,129010.0,152561.0,11889.0
1680104302698608,128973.0,152563.0,11863.0
1680104302710608,129008.0,152623.0,11854.0
1680104302718608,128984.0,152568.0,11891.0
1680104302727608,129003.0,152577.0,11838.0
1680104302739608,128962.0,152624.0,11831.0
1680104302749608,128980.0,152574.0,11838.0
1680104302758608,128958.0,152595.0,11838.0
1680104302767608,128976.0,152579.0,11844.0
1680104302779608,128965.0,152650.0,11802.0
1680104302789608,128954.0,152644.0,11825.0
1680104302798608,128944.0,152684.0,11828.0
1680104302808608,128943.0,152666.0,11814.0
1680104302820608,128931.0,152667.0,11819.0
1680104302830608,128907.0,152687.0,11789.0
1680104302837608,128912.0,152679.0,11803.0
1680104302847608,128906.0,152698.0,11779.0
1680104302859608,128913.0,152740.0,11799.0
1680104302868608,128911.0,152665.0,11801.0
1680104302878608,128931.0,152710.0,11795.0
1680104302888608,128922.0,152706.0,11812.0
1680104302898608,128912.0,152706.0,11807.0
1680104302910608,128923.0,152762.0,11818.0
1680104302920608,128938.0,152689.0,11841.0
1680104302928608,128906.0,152690.0,11831.0
1680104302938608,128935.0,152628.0,11829.0
1680104302948608,128939.0,152645.0,11807.0
1680104302958608,128932.0,152641.0,11820.0
1680104302967608,128954.0,152626.0,11805.0
1680104302979608,128933.0,152660.0,11793.0
1680104302990608,128915.0,152641.0,11816.0
1680104302998608,128928.0,152611.0,11829.0
1680104303007608,128930.0,152657.0,11825.0
1680104303018608,128940.0,152667.0,11804.0
1680104303029608,128917.0,152677.0,11806.0
1680104303038608,128915.0,152695.0,11855.0
1680104303048608,128920.0,152696.0,11826.0
1680104303059608,128970.0,152706.0,11826.0
1680104303068608,128909.0,152703.0,11854.0
1680104303078608,128926.0,152694.0,11801.0
1680104303088608,128964.0,152719.0,11798.0
1680104303099608,128898.0,152749.0,11805.0
1680104303108608,128912.0,152664.0,11838.0
1680104303118608,128886.0,152718.0,11816.0
1680104303129608,128897.0,152763.0,11801.0
1680104303137607,128913.0,152681.0,11832.0
1680104303148607,128918.0,152710.0,11802.0
1680104303159607,128936.0,152723.0,11787.0
1680104303168607,128892.0,152715.0,11820.0
1680104303178607,128894.0,152707.0,11812.0
1680104303189607,128902.0,152696.0,11798.0
1680104303198608,128902.0,152694.0,11814.0
1680104303208608,128902.0,152688.0,11818.0
1680104303219607,128938.0,152700.0,11813.0
1680104303229607,128921.0,152678.0,11801.0
1680104303238608,128899.0,152714.0,11834.0
1680104303248607,128916.0,152686.0,11811.0
1680104303259607,128938.0,152708.0,11792.0
1680104303268607,128887.0,152729.0,11838.0
1680104303278607,128874.0,152684.0,11796.0
1680104303290608,128924.0,152696.0,11794.0
1680104303299608,128860.0,152701.0,11834.0
1680104303308608,128881.0,152726.0,11788.0
1680104303317608,128853.0,152689.0,11796.0
1680104303329608,128868.0,152721.0,11762.0
1680104303338608,128881.0,152693.0,11796.0
1680104303348608,128856.0,152702.0,11803.0
1680104303357608,128862.0,152657.0,11810.0
1680104303369608,128900.0,152712.0,11766.0
1680104303379608,128924.0,152688.0,11811.0
1680104303387607,128935.0,152684.0,11813.0
1680104303397607,128966.0,152667.0,11813.0
1680104303409608,128987.0,152657.0,11813.0
1680104303418608,128974.0,152635.0,11841.0
1680104303427608,129011.0,152595.0,11827.0
1680104303439608,129022.0,152606.0,11826.0
1680104303448608,129014.0,152591.0,11835.0
1680104303458608,128992.0,152599.0,11858.0
1680104303468608,129013.0,152599.0,11819.0
1680104303479608,129007.0,152595.0,11841.0
1680104303487608,128990.0,152599.0,11850.0
1680104303498607,128984.0,152633.0,11847.0
1680104303507608,128990.0,152629.0,11845.0
1680104303518607,129003.0,152639.0,11803.0
1680104303528607,128963.0,152697.0,11826.0
1680104303539607,128914.0,152697.0,11813.0
1680104303547607,128945.0,152639.0,11845.0
1680104303558608,128926.0,152694.0,11803.0
1680104303568608,128963.0,152708.0,11812.0
1680104303580608,128938.0,152682.0,11797.0
1680104303589608,128866.0,152708.0,11822.0
1680104303597608,128921.0,152656.0,11796.0
1680104303607608,128897.0,152723.0,11806.0
1680104303618608,128904.0,152730.0,11806.0
1680104303628608,128906.0,152745.0,11793.0
1680104303637608,128915.0,152725.0,11775.0
1680104303649608,128915.0,152759.0,11788.0
1680104303657608,128913.0,152725.0,11793.0
1680104303668608,128933.0,152701.0,11780.0
1680104303677608,128927.0,152709.0,11803.0
1680104303689608,128899.0,152709.0,11802.0
1680104303697608,128931.0,152661.0,11803.0
1680104303708608,128955.0,152722.0,11768.0
1680104303717608,128943.0,152715.0,11809.0
1680104303729608,128899.0,152708.0,11803.0
1680104303737608,128938.0,152655.0,11807.0
1680104303748607,128909.0,152685.0,11818.0
1680104303757608,128940.0,152709.0,11803.0
1680104303769608,128938.0,152724.0,11806.0
1680104303779608,128916.0,152712.0,11829.0
1680104303788608,128921.0,152690.0,11820.0
1680104303797608,128889.0,152719.0,11810.0
1680104303807608,128931.0,152748.0,11800.0
1680104303818608,128914.0,152691.0,11803.0
1680104303828608,128972.0,152731.0,11780.0
1680104303838608,128920.0,152732.0,11807.0
1680104303849608,128918.0,152717.0,11796.0
1680104303858608,128840.0,152721.0,11811.0
1680104303867608,128865.0,152683.0,11805.0
1680104303879608,128897.0,152751.0,11753.0
1680104303889608,128917.0,152744.0,11789.0
1680104303898608,128865.0,152766.0,11792.0
1680104303907608,128873.0,152752.0,11805.0
1680104303919608,128895.0,152771.0,11756.0
1680104303929608,128898.0,152772.0,11789.0
1680104303937608,128899.0,152720.0,11793.0
1680104303947608,128890.0,152786.0,11798.0
1680104303959608,128902.0,152779.0,11768.0
1680104303967608,128878.0,152782.0,11792.0
1680104303977608,128890.0,152773.0,11801.0
1680104303989608,128892.0,152803.0,11749.0
1680104303998608,128875.0,152769.0,11778.0
1680104304007608,128848.0,152741.0,11790.0
1680104304017608,128873.0,152781.0,11771.0
1680104304029608,128858.0,152800.0,11782.0
1680104304039608,128880.0,152733.0,11794.0
1680104304047608,128908.0,152786.0,11794.0
1680104304057608,128897.0,152794.0,11800.0
1680104304068608,128910.0,152811.0,11769.0
1680104304078608,128895.0,152837.0,11790.0
1680104304089608,128880.0,152807.0,11788.0
1680104304097608,128895.0,152796.0,11797.0
1680104304107608,128858.0,152793.0,11799.0
1680104304119608,128898.0,152792.0,11764.0
1680104304128608,128901.0,152764.0,11800.0
1680104304137608,128885.0,152771.0,11799.0
1680104304147608,128887.0,152767.0,11760.0
1680104304159608,128936.0,152743.0,11790.0
1680104304168608,128919.0,152701.0,11835.0
1680104304178608,128952.0,152688.0,11839.0
1680104304188608,128985.0,152662.0,11836.0
1680104304200608,129015.0,152647.0,11845.0
1680104304207608,128995.0,152586.0,11849.0
1680104304217608,129009.0,152662.0,11844.0
1680104304228608,128999.0,152645.0,11841.0
1680104304237608,128994.0,152624.0,11840.0
1680104304247608,129002.0,152640.0,11817.0
1680104304257608,128983.0,152668.0,11810.0
1680104304267608,128973.0,152665.0,11829.0
1680104304277608,128982.0,152648.0,11796.0
1680104304288607,128971.0,152682.0,11840.0
1680104304297608,128944.0,152693.0,11814.0
1680104304307608,128970.0,152747.0,11811.0
1680104304317608,128939.0,152724.0,11821.0
1680104304329608,128905.0,152715.0,11804.0
1680104304338608,128917.0,152721.0,11799.0
1680104304347608,128874.0,152717.0,11844.0
1680104304357608,128909.0,152686.0,11811.0
1680104304369608,128893.0,152726.0,11791.0
1680104304379608,128903.0,152706.0,11788.0
1680104304387608,128887.0,152688.0,11825.0
1680104304398608,128889.0,152717.0,11791.0
1680104304407608,128925.0,152715.0,11795.0
1680104304419608,128901.0,152733.0,11769.0
1680104304427608,128912.0,152714.0,11821.0
1680104304438608,128884.0,152711.0,11806.0
1680104304447608,128941.0,152744.0,11808.0
1680104304460608,128921.0,152737.0,11776.0
1680104304466608,128937.0,152710.0,11794.0
1680104304477608,128913.0,152732.0,11788.0
1680104304488608,128935.0,152756.0,11807.0
1680104304500608,128906.0,152769.0,11804.0
1680104304506608,128936.0,152755.0,11813.0
1680104304517608,128880.0,152770.0,11806.0
1680104304528607,128945.0,152769.0,11821.0
1680104304537608,128918.0,152779.0,11793.0
1680104304547608,128933.0,152762.0,11795.0
1680104304558607,128920.0,152765.0,11795.0
1680104304568607,128874.0,152761.0,11794.0
1680104304577607,128904.0,152709.0,11804.0
1680104304588607,128909.0,152746.0,11762.0
1680104304599607,128890.0,152728.0,11795.0
1680104304607607,128895.0,152695.0,11800.0
1680104304617607,128900.0,152706.0,11800.0
1680104304629607,128900.0,152707.0,11775.0
1680104304637608,128892.0,152721.0,11801.0
1680104304647608,128906.0,152683.0,11790.0
1680104304658608,128939.0,152703.0,11806.0
1680104304668608,128893.0,152741.0,11798.0
1680104304679607,128863.0,152722.0,11790.0
1680104304689607,128893.0,152691.0,11789.0
1680104304697607,128893.0,152712.0,11796.0
1680104304707607,128875.0,152699.0,11769.0
1680104304717607,128887.0,152722.0,11792.0
1680104304727607,128898.0,152771.0,11785.0
1680104304737607,128892.0,152734.0,11762.0
1680104304748607,128904.0,152751.0,11801.0
1680104304757607,128890.0,152748.0,11790.0
1680104304769607,128903.0,152785.0,11782.0
1680104304779607,128880.0,152765.0,11803.0
1680104304788607,128836.0,152749.0,11807.0
1680104304796607,128845.0,152706.0,11792.0
1680104304809607,128880.0,152753.0,11737.0
1680104304819608,128884.0,152740.0,11809.0
1680104304827607,128858.0,152756.0,11815.0
1680104304837607,128878.0,152740.0,11792.0
1680104304848607,128881.0,152772.0,11802.0
1680104304859607,128882.0,152746.0,11783.0
1680104304867607,128890.0,152747.0,11784.0
1680104304877607,128884.0,152739.0,11799.0
1680104304887607,128890.0,152722.0,11804.0
1680104304897607,128901.0,152727.0,11805.0
1680104304907607,128888.0,152661.0,11821.0
1680104304918607,128951.0,152674.0,11834.0
1680104304928607,128948.0,152624.0,11824.0
1680104304937607,128963.0,152605.0,11836.0
1680104304947607,128941.0,152591.0,11851.0
1680104304958607,129005.0,152606.0,11822.0
1680104304968607,128967.0,152614.0,11840.0
1680104304977607,128977.0,152605.0,11874.0
1680104304987607,128982.0,152554.0,11825.0
1680104304999608,128980.0,152612.0,11832.0
1680104305007608,128946.0,152604.0,11847.0
1680104305017608,128951.0,152645.0,11810.0
1680104305028607,128980.0,152658.0,11820.0
1680104305038607,128905.0,152685.0,11814.0
1680104305048607,128944.0,152678.0,11809.0
1680104305057608,128924.0,152690.0,11809.0
1680104305067608,128891.0,152722.0,11803.0
1680104305077607,128918.0,152728.0,11776.0
1680104305088607,128908.0,152749.0,11777.0
1680104305096607,128892.0,152736.0,11781.0
1680104305107607,128891.0,152736.0,11753.0
1680104305117607,128890.0,152731.0,11786.0
1680104305129607,128843.0,152749.0,11771.0
1680104305136607,128874.0,152704.0,11794.0
1680104305147607,128872.0,152741.0,11758.0
1680104305158607,128888.0,152749.0,11799.0
1680104305167607,128876.0,152736.0,11790.0
1680104305177608,128911.0,152739.0,11781.0
1680104305189608,128909.0,152686.0,11786.0
1680104305198608,128911.0,152770.0,11795.0
1680104305207608,128878.0,152723.0,11801.0
1680104305219608,128904.0,152737.0,11765.0
1680104305229608,128913.0,152731.0,11801.0
1680104305237608,128923.0,152723.0,11802.0
1680104305247608,128914.0,152742.0,11799.0
1680104305257608,128940.0,152738.0,11807.0
1680104305268608,128924.0,152805.0,11795.0
1680104305277608,128898.0,152745.0,11833.0
1680104305287608,128888.0,152751.0,11786.0
1680104305296608,128936.0,152744.0,11790.0
1680104305308608,128862.0,152747.0,11754.0
1680104305317608,128896.0,152746.0,11794.0
1680104305328608,128859.0,152754.0,11805.0
1680104305337608,128904.0,152752.0,11792.0
1680104305349608,128883.0,152753.0,11766.0
1680104305359608,128874.0,152756.0,11790.0
1680104305367607,128884.0,152746.0,11791.0
1680104305377607,128886.0,152743.0,11788.0
1680104305388607,128850.0,152763.0,11781.0
1680104305397607,128867.0,152739.0,11782.0
1680104305407607,128874.0,152773.0,11779.0
1680104305418607,128878.0,152781.0,11788.0
1680104305428607,128869.0,152766.0,11782.0
1680104305437607,128861.0,152778.0,11811.0
1680104305447607,128889.0,152776.0,11804.0
1680104305458607,128911.0,152779.0,11783.0
1680104305468607,128864.0,152844.0,11787.0
1680104305477607,128862.0,152752.0,11817.0
1680104305487607,128875.0,152744.0,11772.0
1680104305499607,128876.0,152802.0,11785.0
1680104305506607,128865.0,152777.0,11820.0
1680104305517607,128856.0,152755.0,11785.0
1680104305528607,128911.0,152768.0,11789.0
1680104305537608,128839.0,152749.0,11822.0
1680104305547608,128866.0,152755.0,11772.0
1680104305558607,128903.0,152757.0,11783.0
1680104305567608,128859.0,152757.0,11815.0
1680104305577607,128861.0,152760.0,11775.0
1680104305588607,128873.0,152819.0,11781.0
1680104305597607,128866.0,152768.0,11822.0
1680104305607607,128877.0,152736.0,11791.0
1680104305618607,128909.0,152745.0,11802.0
1680104305628607,128895.0,152714.0,11802.0
1680104305637607,128927.0,152676.0,11820.0
1680104305647607,128899.0,152675.0,11821.0
1680104305658607,128966.0,152660.0,11829.0
1680104305668607,128952.0,152616.0,11827.0
1680104305678607,128974.0,152635.0,11829.0
1680104305686607,128963.0,152609.0,11840.0
1680104305697607,128954.0,152619.0,11827.0
1680104305707607,128980.0,152633.0,11834.0
1680104305719608,128921.0,152640.0,11822.0
1680104305727608,128953.0,152612.0,11828.0
1680104305737608,128943.0,152634.0,11825.0
1680104305748607,128988.0,152675.0,11825.0
1680104305757608,128894.0,152716.0,11804.0
1680104305769608,128921.0,152659.0,11806.0
1680104305777608,128907.0,152690.0,11805.0
1680104305787608,128877.0,152712.0,11799.0
1680104305797608,128891.0,152720.0,11781.0
1680104305807608,128837.0,152725.0,11794.0
1680104305817608,128849.0,152676.0,11793.0
1680104305829608,128859.0,152762.0,11779.0
1680104305838608,128861.0,152751.0,11799.0
1680104305846608,128827.0,152761.0,11787.0
1680104305856608,128866.0,152733.0,11757.0
1680104305868608,128867.0,152760.0,11745.0
1680104305879608,128832.0,152767.0,11779.0
1680104305886608,128865.0,152697.0,11785.0
1680104305898608,128866.0,152737.0,11753.0
1680104305909608,128862.0,152749.0,11784.0
1680104305917607,128873.0,152695.0,11800.0
1680104305927607,128878.0,152766.0,11798.0
1680104305939607,128891.0,152710.0,11789.0
1680104305947607,128891.0,152710.0,11803.0
1680104305957607,128878.0,152735.0,11784.0
1680104305968607,128879.0,152747.0,11789.0
1680104305978607,128894.0,152725.0,11787.0
1680104305987607,128878.0,152740.0,11828.0
1680104305997607,128896.0,152721.0,11773.0
1680104306006607,128891.0,152772.0,11784.0
1680104306016607,128863.0,152741.0,11789.0
1680104306027607,128875.0,152755.0,11788.0
1680104306038607,128865.0,152757.0,11779.0
1680104306046607,128879.0,152743.0,11791.0
1680104306057607,128864.0,152757.0,11786.0
1680104306067607,128925.0,152751.0,11801.0
1680104306078608,128898.0,152749.0,11780.0
1680104306087608,128839.0,152783.0,11830.0
1680104306097608,128850.0,152762.0,11752.0
1680104306106608,128897.0,152749.0,11794.0
1680104306118608,128842.0,152762.0,11747.0
1680104306128608,128839.0,152745.0,11782.0
1680104306136608,128844.0,152725.0,11774.0
1680104306146608,128842.0,152727.0,11736.0
1680104306158608,128838.0,152749.0,11746.0
1680104306168608,128797.0,152738.0,11775.0
1680104306176608,128842.0,152685.0,11768.0
1680104306186608,128788.0,152744.0,11789.0
1680104306198608,128843.0,152743.0,11758.0
1680104306209608,128836.0,152733.0,11774.0
1680104306216608,128844.0,152741.0,11780.0
1680104306226608,128832.0,152740.0,11777.0
1680104306238608,128836.0,152732.0,11760.0
1680104306246608,128830.0,152692.0,11775.0
1680104306256608,128839.0,152752.0,11747.0
1680104306268608,128845.0,152733.0,11774.0
1680104306276608,128839.0,152690.0,11775.0
1680104306287608,128828.0,152731.0,11746.0
1680104306296608,128836.0,152728.0,11772.0
1680104306308608,128865.0,152734.0,11768.0
1680104306318608,128827.0,152736.0,11773.0
1680104306327608,128827.0,152730.0,11804.0
1680104306337608,128826.0,152737.0,11768.0
1680104306346608,128846.0,152778.0,11772.0
1680104306356608,128810.0,152733.0,11792.0
1680104306367608,128857.0,152713.0,11786.0
1680104306377608,128879.0,152706.0,11796.0
1680104306386608,128897.0,152677.0,11771.0
1680104306398608,128901.0,152656.0,11789.0
1680104306407608,128872.0,152643.0,11832.0
1680104306417608,128916.0,152567.0,11831.0
1680104306427608,128943.0,152631.0,11781.0
1680104306437608,128947.0,152610.0,11827.0
1680104306447608,128933.0,152613.0,11822.0
1680104306459608,128932.0,152598.0,11823.0
1680104306466608,128926.0,152634.0,11800.0
1680104306476608,128915.0,152612.0,11819.0
1680104306488608,128890.0,152663.0,11772.0
1680104306497608,128899.0,152651.0,11829.0
1680104306506608,128859.0,152651.0,11804.0
1680104306517608,128887.0,152683.0,11771.0
1680104306529608,128887.0,152668.0,11793.0
1680104306537608,128876.0,152720.0,11784.0
1680104306546608,128860.0,152687.0,11811.0
1680104306558608,128874.0,152734.0,11765.0
1680104306566608,128855.0,152674.0,11779.0
1680104306577608,128840.0,152722.0,11783.0
1680104306587608,128832.0,152743.0,11781.0
1680104306598608,128873.0,152742.0,11768.0
1680104306606608,128844.0,152727.0,11782.0
1680104306617608,128836.0,152762.0,11766.0
1680104306627608,128843.0,152745.0,11777.0
1680104306637608,128866.0,152747.0,11771.0
1680104306647608,128840.0,152769.0,11783.0
1680104306659608,128834.0,152719.0,11781.0
1680104306667608,128814.0,152722.0,11788.0
1680104306677608,128818.0,152720.0,11786.0
1680104306688608,128864.0,152759.0,11778.0
1680104306696607,128861.0,152745.0,11791.0
1680104306706607,128850.0,152725.0,11766.0
1680104306716607,128869.0,152746.0,11789.0
1680104306727607,128868.0,152763.0,11796.0
1680104306736607,128859.0,152706.0,11776.0
1680104306747607,128855.0,152755.0,11730.0
1680104306756607,128864.0,152769.0,11788.0
1680104306768607,128869.0,152802.0,11765.0
1680104306776607,128847.0,152765.0,11779.0
1680104306787607,128848.0,152774.0,11790.0
1680104306796608,128839.0,152762.0,11780.0
1680104306808608,128883.0,152780.0,11778.0
1680104306818608,128834.0,152770.0,11803.0
1680104306827608,128837.0,152733.0,11762.0
1680104306837608,128798.0,152758.0,11780.0
1680104306846608,128813.0,152784.0,11766.0
1680104306856608,128825.0,152723.0,11768.0
1680104306868608,128796.0,152756.0,11766.0
1680104306877608,128825.0,152717.0,11787.0
1680104306886608,128808.0,152715.0,11769.0
1680104306898608,128797.0,152715.0,11767.0
1680104306908608,128778.0,152726.0,11824.0
1680104306917608,128810.0,152675.0,11794.0
1680104306927608,128798.0,152709.0,11754.0
1680104306936608,128825.0,152713.0,11763.0
1680104306946608,128801.0,152665.0,11783.0
1680104306957608,128826.0,152728.0,11752.0
1680104306966608,128803.0,152756.0,11770.0
1680104306976608,128802.0,152707.0,11762.0
1680104306987608,128821.0,152709.0,11761.0
1680104306997608,128807.0,152722.0,11764.0
1680104307006608,128804.0,152747.0,11765.0
1680104307016608,128793.0,152715.0,11768.0
1680104307027608,128854.0,152755.0,11740.0
1680104307037608,128796.0,152772.0,11764.0
1680104307047608,128750.0,152746.0,11767.0
1680104307056608,128790.0,152731.0,11779.0
1680104307066608,128800.0,152714.0,11777.0
1680104307078608,128769.0,152717.0,11750.0
1680104307087608,128798.0,152722.0,11776.0
1680104307096608,128748.0,152761.0,11767.0
1680104307107608,128808.0,152790.0,11769.0
1680104307118608,128807.0,152720.0,11762.0
1680104307126608,128816.0,152706.0,11774.0
1680104307136608,128816.0,152687.0,11782.0
1680104307146608,128820.0,152695.0,11757.0
1680104307158608,128826.0,152687.0,11789.0
1680104307168608,128887.0,152574.0,11795.0
1680104307176607,128908.0,152632.0,11836.0
1680104307186607,128920.0,152578.0,11825.0
1680104307198608,128904.0,152599.0,11811.0
1680104307208608,128930.0,152573.0,11820.0
1680104307216607,128915.0,152584.0,11845.0
1680104307226607,128907.0,152583.0,11806.0
1680104307238608,128903.0,152650.0,11807.0
1680104307248607,128846.0,152586.0,11841.0
1680104307256607,128878.0,152556.0,11829.0
1680104307266607,128825.0,152616.0,11792.0
1680104307277607,128859.0,152616.0,11793.0
1680104307287607,128845.0,152630.0,11788.0
1680104307296607,128803.0,152640.0,11787.0
1680104307306607,128870.0,152646.0,11787.0
1680104307316607,128830.0,152679.0,11771.0
1680104307327607,128823.0,152663.0,11776.0
1680104307337608,128803.0,152676.0,11764.0
1680104307346608,128815.0,152736.0,11767.0
1680104307356608,128815.0,152679.0,11737.0
1680104307368608,128792.0,152711.0,11754.0
1680104307376608,128776.0,152660.0,11796.0
1680104307386608,128780.0,152613.0,11761.0
1680104307398608,128777.0,152680.0,11750.0
1680104307406608,128795.0,152650.0,11769.0
1680104307417608,128792.0,152629.0,11781.0
1680104307426608,128848.0,152656.0,11775.0
1680104307438608,128817.0,152688.0,11765.0
1680104307448608,128812.0,152653.0,11817.0
1680104307457608,128752.0,152618.0,11783.0
1680104307467608,128771.0,152570.0,11787.0
1680104307476608,128807.0,152637.0,11811.0
1680104307486608,128810.0,152610.0,11761.0
1680104307497608,128849.0,152604.0,11778.0
1680104307506608,128802.0,152577.0,11780.0
1680104307516608,128811.0,152604.0,11757.0
1680104307527608,128843.0,152624.0,11782.0
1680104307538607,128788.0,152600.0,11766.0
1680104307546607,128804.0,152604.0,11753.0
1680104307556607,128749.0,152603.0,11768.0
1680104307568607,128768.0,152658.0,11765.0
1680104307578607,128795.0,152574.0,11792.0
1680104307586607,128759.0,152627.0,11766.0
1680104307596607,128767.0,152617.0,11752.0
1680104307606607,128784.0,152622.0,11763.0
1680104307616607,128783.0,152644.0,11767.0
1680104307628607,128772.0,152664.0,11759.0
1680104307636607,128775.0,152647.0,11763.0
1680104307646607,128783.0,152639.0,11773.0
1680104307657607,128782.0,152653.0,11756.0
1680104307667607,128733.0,152680.0,11761.0
1680104307676607,128768.0,152640.0,11749.0
1680104307686607,128783.0,152604.0,11768.0
1680104307697608,128768.0,152656.0,11710.0
1680104307709608,128766.0,152625.0,11756.0
1680104307715608,128762.0,152630.0,11760.0
1680104307726608,128718.0,152642.0,11760.0
1680104307736608,128767.0,152632.0,11768.0
1680104307748608,128765.0,152652.0,11749.0
1680104307757608,128771.0,152624.0,11749.0
1680104307766608,128748.0,152638.0,11799.0
1680104307776608,128772.0,152635.0,11766.0
1680104307787608,128804.0,152650.0,11759.0
1680104307796608,128748.0,152682.0,11750.0
1680104307806608,128760.0,152640.0,11752.0
1680104307816608,128717.0,152626.0,11760.0
1680104307828608,128764.0,152694.0,11753.0
1680104307837608,128741.0,152596.0,11786.0
1680104307846608,128719.0,152639.0,11749.0
1680104307857608,128780.0,152667.0,11758.0
1680104307866608,128740.0,152658.0,11790.0
1680104307877608,128744.0,152645.0,11766.0
1680104307886608,128802.0,152639.0,11763.0
1680104307898608,128759.0,152607.0,11764.0
1680104307908608,128797.0,152591.0,11766.0
1680104307916608,128804.0,152573.0,11787.0
1680104307926608,128820.0,152553.0,11799.0
1680104307938608,128840.0,152525.0,11789.0
1680104307946608,128847.0,152505.0,11799.0
1680104307956608,128853.0,152499.0,11783.0
1680104307967608,128872.0,152477.0,11816.0
1680104307978608,128823.0,152485.0,11802.0
1680104307986607,128845.0,152479.0,11815.0
1680104307996607,128842.0,152513.0,11807.0
1680104308006607,128835.0,152516.0,11810.0
1680104308017607,128820.0,152574.0,11780.0
1680104308026607,128812.0,152541.0,11825.0
1680104308036607,128822.0,152543.0,11791.0
1680104308046607,128843.0,152570.0,11768.0
1680104308056608,128776.0,152615.0,11772.0
1680104308066608,128776.0,152584.0,11785.0
1680104308078608,128794.0,152647.0,11764.0
1680104308087608,128767.0,152602.0,11800.0
1680104308096608,128769.0,152625.0,11753.0
1680104308106608,128769.0,152564.0,11755.0
1680104308118608,128737.0,152675.0,11752.0
1680104308128608,128749.0,152629.0,11773.0
1680104308136608,128704.0,152650.0,11755.0
1680104308146608,128749.0,152571.0,11760.0
1680104308158608,128744.0,152642.0,11750.0
1680104308166608,128749.0,152627.0,11743.0
1680104308176608,128714.0,152608.0,11769.0
1680104308186608,128721.0,152644.0,11761.0
1680104308196608,128760.0,152573.0,11769.0
1680104308207608,128806.0,152609.0,11766.0
1680104308217608,128775.0,152624.0,11762.0
1680104308226608,128772.0,152552.0,11796.0
1680104308236608,128751.0,152602.0,11748.0
1680104308247608,128786.0,152603.0,11758.0
1680104308257608,128761.0,152585.0,11763.0
1680104308266608,128762.0,152568.0,11759.0
1680104308276608,128736.0,152566.0,11765.0
1680104308286608,128762.0,152612.0,11740.0
1680104308297608,128763.0,152593.0,11752.0
1680104308305607,128749.0,152533.0,11761.0
1680104308316607,128752.0,152562.0,11771.0
1680104308326607,128731.0,152595.0,11745.0
1680104308337607,128727.0,152595.0,11751.0
1680104308345607,128689.0,152576.0,11807.0
1680104308356607,128741.0,152534.0,11769.0
1680104308366607,128794.0,152597.0,11742.0
1680104308378607,128740.0,152631.0,11744.0
1680104308387607,128721.0,152604.0,11795.0
1680104308396607,128732.0,152601.0,11777.0
1680104308406607,128689.0,152566.0,11751.0
1680104308418608,128672.0,152638.0,11748.0
1680104308426607,128726.0,152573.0,11772.0
1680104308435608,128691.0,152607.0,11750.0
1680104308446607,128709.0,152631.0,11750.0
1680104308457607,128725.0,152562.0,11751.0
1680104308465607,128731.0,152555.0,11744.0
1680104308475607,128695.0,152585.0,11743.0
1680104308486607,128714.0,152624.0,11721.0
1680104308497607,128727.0,152669.0,11746.0
1680104308505607,128698.0,152616.0,11782.0
1680104308516607,128710.0,152610.0,11749.0
1680104308526607,128754.0,152619.0,11751.0
1680104308537607,128741.0,152628.0,11750.0
1680104308547607,128710.0,152646.0,11743.0
1680104308556607,128710.0,152601.0,11742.0
1680104308565607,128710.0,152619.0,11747.0
1680104308577607,128705.0,152633.0,11755.0
1680104308587607,128718.0,152606.0,11735.0
1680104308595608,128710.0,152573.0,11742.0
1680104308606608,128704.0,152631.0,11710.0
1680104308616608,128736.0,152648.0,11754.0
1680104308628608,128724.0,152661.0,11746.0
1680104308637608,128730.0,152623.0,11791.0
1680104308646608,128738.0,152575.0,11740.0
1680104308656608,128716.0,152543.0,11774.0
1680104308668608,128727.0,152588.0,11781.0
1680104308675608,128798.0,152498.0,11776.0
1680104308686608,128768.0,152517.0,11802.0
1680104308697608,128816.0,152504.0,11793.0
1680104308706608,128817.0,152435.0,11828.0
1680104308715608,128820.0,152494.0,11765.0
1680104308726608,128853.0,152498.0,11811.0
1680104308737608,128767.0,152529.0,11785.0
1680104308746608,128798.0,152462.0,11809.0
1680104308755608,128760.0,152486.0,11790.0
1680104308767608,128813.0,152531.0,11772.0
1680104308776608,128759.0,152547.0,11802.0
1680104308786608,128756.0,152530.0,11742.0
1680104308796608,128765.0,152540.0,11776.0
1680104308807608,128753.0,152578.0,11772.0
1680104308815607,128722.0,152585.0,11764.0
1680104308826607,128732.0,152578.0,11771.0
1680104308836607,128734.0,152594.0,11753.0
1680104308846607,128764.0,152602.0,11749.0
1680104308856607,128714.0,152660.0,11746.0
1680104308868607,128689.0,152590.0,11736.0
1680104308876607,128706.0,152609.0,11735.0
1680104308886607,128660.0,152588.0,11754.0
1680104308896607,128670.0,152645.0,11746.0
1680104308908607,128701.0,152581.0,11741.0
1680104308918607,128673.0,152621.0,11749.0
1680104308925607,128708.0,152559.0,11759.0
1680104308935607,128722.0,152573.0,11751.0
1680104308946607,128727.0,152583.0,11765.0
1680104308956608,128725.0,152596.0,11760.0
1680104308965608,128735.0,152629.0,11742.0
1680104308976608,128666.0,152573.0,11759.0
1680104308985608,128763.0,152579.0,11765.0
1680104308997608,128720.0,152573.0,11713.0
1680104309005608,128725.0,152564.0,11754.0
1680104309015608,128737.0,152550.0,11758.0
1680104309026608,128727.0,152551.0,11752.0
1680104309038608,128706.0,152589.0,11742.0
1680104309046608,128719.0,152537.0,11743.0
1680104309055608,128721.0,152589.0,11714.0
1680104309066608,128717.0,152613.0,11752.0
1680104309078608,128666.0,152589.0,11736.0
1680104309086608,128712.0,152561.0,11752.0
1680104309095608,128704.0,152619.0,11736.0
1680104309107608,128710.0,152636.0,11718.0
1680104309116608,128668.0,152616.0,11750.0
1680104309126608,128670.0,152624.0,11748.0
1680104309136608,128684.0,152644.0,11699.0
1680104309148608,128693.0,152616.0,11737.0
1680104309155608,128701.0,152628.0,11745.0
1680104309166607,128686.0,152578.0,11738.0
1680104309175608,128695.0,152616.0,11730.0
1680104309185608,128655.0,152610.0,11739.0
1680104309196607,128692.0,152606.0,11748.0
1680104309207607,128672.0,152613.0,11727.0
1680104309215607,128688.0,152623.0,11753.0
1680104309225607,128687.0,152600.0,11739.0
1680104309237607,128684.0,152628.0,11731.0
1680104309245607,128692.0,152613.0,11749.0
1680104309255607,128669.0,152622.0,11747.0
1680104309265607,128697.0,152640.0,11717.0
1680104309275607,128696.0,152600.0,11733.0
1680104309286607,128688.0,152600.0,11733.0
1680104309296607,128688.0,152629.0,11715.0
1680104309305607,128674.0,152623.0,11738.0
1680104309315608,128697.0,152621.0,11702.0
1680104309326608,128671.0,152629.0,11749.0
1680104309336608,128685.0,152645.0,11727.0
1680104309345608,128685.0,152685.0,11731.0
1680104309355608,128667.0,152575.0,11748.0
1680104309365608,128721.0,152620.0,11738.0
1680104309377608,128655.0,152648.0,11736.0
1680104309385608,128700.0,152556.0,11782.0
1680104309396608,128668.0,152600.0,11754.0
1680104309405608,128733.0,152569.0,11759.0
1680104309417608,128747.0,152551.0,11749.0
1680104309425608,128777.0,152520.0,11770.0
1680104309435608,128783.0,152495.0,11789.0
1680104309445608,128764.0,152521.0,11762.0
1680104309457608,128797.0,152495.0,11758.0
1680104309465608,128770.0,152480.0,11785.0
1680104309475607,128788.0,152472.0,11781.0
1680104309485607,128760.0,152503.0,11752.0
1680104309497608,128769.0,152519.0,11752.0
1680104309506608,128730.0,152518.0,11777.0
1680104309515608,128730.0,152533.0,11804.0
1680104309525608,128752.0,152499.0,11767.0
1680104309537608,128731.0,152560.0,11758.0
1680104309546608,128724.0,152536.0,11784.0
1680104309555608,128731.0,152550.0,11734.0
1680104309566608,128749.0,152599.0,11753.0
1680104309576608,128698.0,152631.0,11744.0
1680104309587608,128696.0,152533.0,11739.0
1680104309595608,128661.0,152595.0,11731.0
1680104309605608,128651.0,152603.0,11742.0
1680104309616608,128664.0,152618.0,11686.0
1680104309628608,128677.0,152600.0,11729.0
1680104309634608,128678.0,152549.0,11740.0
1680104309645608,128654.0,152609.0,11722.0
1680104309656607,128687.0,152602.0,11735.0
1680104309668608,128659.0,152596.0,11733.0
1680104309675608,128689.0,152596.0,11745.0
1680104309685608,128690.0,152600.0,11762.0
1680104309696607,128741.0,152580.0,11751.0
1680104309706607,128713.0,152619.0,11737.0
1680104309715608,128694.0,152621.0,11741.0
1680104309725607,128699.0,152578.0,11708.0
1680104309737608,128702.0,152620.0,11736.0
1680104309746608,128693.0,152534.0,11786.0
1680104309755608,128640.0,152559.0,11749.0
1680104309767608,128725.0,152561.0,11756.0
1680104309777608,128692.0,152569.0,11779.0
1680104309786608,128663.0,152572.0,11759.0
1680104309796608,128666.0,152559.0,11748.0
1680104309805608,128697.0,152571.0,11737.0
1680104309815608,128689.0,152566.0,11732.0
1680104309827608,128688.0,152603.0,11734.0
1680104309836608,128656.0,152576.0,11760.0
1680104309845608,128676.0,152570.0,11736.0
1680104309855608,128674.0,152589.0,11736.0
1680104309865608,128669.0,152582.0,11709.0
1680104309877608,128624.0,152626.0,11726.0
1680104309884608,128672.0,152557.0,11724.0
1680104309895608,128657.0,152580.0,11735.0
1680104309906607,128708.0,152596.0,11708.0
1680104309917607,128668.0,152649.0,11724.0
1680104309925607,128620.0,152581.0,11788.0
1680104309935607,128674.0,152592.0,11725.0
1680104309946607,128701.0,152605.0,11734.0
1680104309957607,128634.0,152629.0,11727.0
1680104309965607,128601.0,152589.0,11738.0
1680104309975607,128632.0,152548.0,11728.0
1680104309985607,128655.0,152605.0,11686.0
1680104309997607,128665.0,152614.0,11700.0
1680104310005607,128653.0,152610.0,11729.0
1680104310015607,128631.0,152604.0,11726.0
1680104310025607,128649.0,152622.0,11691.0
1680104310037608,128671.0,152614.0,11713.0
1680104310045607,128642.0,152603.0,11731.0
1680104310055607,128658.0,152618.0,11736.0
1680104310065607,128670.0,152621.0,11738.0
1680104310077607,128657.0,152633.0,11722.0
1680104310087607,128662.0,152594.0,11722.0
1680104310095607,128649.0,152643.0,11756.0
1680104310105607,128656.0,152627.0,11738.0
1680104310116607,128691.0,152607.0,11729.0
1680104310127607,128654.0,152599.0,11726.0
1680104310135607,128681.0,152598.0,11723.0
1680104310145607,128660.0,152539.0,11745.0
1680104310155607,128718.0,152588.0,11723.0
1680104310167607,128741.0,152557.0,11739.0
1680104310174607,128762.0,152516.0,11761.0
1680104310185607,128756.0,152501.0,11744.0
1680104310195607,128783.0,152483.0,11778.0
1680104310207607,128741.0,152508.0,11765.0
1680104310214608,128771.0,152467.0,11781.0
1680104310225607,128718.0,152501.0,11787.0
1680104310236607,128808.0,152535.0,11756.0
1680104310245607,128762.0,152507.0,11764.0
1680104310255607,128721.0,152530.0,11773.0
1680104310265607,128780.0,152547.0,11727.0
1680104310275607,128741.0,152631.0,11750.0
1680104310285607,128695.0,152556.0,11764.0
1680104310296607,128711.0,152573.0,11745.0
1680104310306607,128703.0,152596.0,11737.0
1680104310315607,128663.0,152601.0,11780.0
1680104310325607,128693.0,152600.0,11746.0
1680104310337607,128681.0,152610.0,11729.0
1680104310345607,128695.0,152600.0,11716.0
1680104310355607,128678.0,152633.0,11736.0
1680104310366607,128721.0,152641.0,11736.0
1680104310377607,128688.0,152672.0,11715.0
1680104310385607,128663.0,152607.0,11757.0
1680104310395608,128620.0,152618.0,11731.0
1680104310406607,128717.0,152640.0,11739.0
1680104310417607,128686.0,152605.0,11729.0
1680104310425607,128649.0,152604.0,11723.0
1680104310435607,128646.0,152568.0,11726.0
1680104310447607,128697.0,152621.0,11732.0
1680104310455607,128700.0,152582.0,11752.0
1680104310465607,128637.0,152608.0,11749.0
1680104310476607,128712.0,152596.0,11736.0
1680104310485607,128695.0,152572.0,11773.0
1680104310496607,128705.0,152566.0,11729.0
1680104310504607,128719.0,152592.0,11746.0
1680104310515607,128705.0,152583.0,11703.0
1680104310525607,128690.0,152579.0,11735.0
1680104310536607,128725.0,152593.0,11715.0
1680104310546607,128663.0,152635.0,11730.0
1680104310555607,128673.0,152545.0,11728.0
1680104310565607,128632.0,152579.0,11739.0
1680104310577608,128639.0,152624.0,11728.0
1680104310586608,128672.0,152548.0,11760.0
1680104310595608,128646.0,152541.0,11735.0
1680104310607608,128671.0,152633.0,11724.0
1680104310617608,128673.0,152610.0,11745.0
1680104310625608,128672.0,152562.0,11726.0
1680104310635608,128660.0,152630.0,11692.0
1680104310647608,128671.0,152593.0,11718.0
1680104310655608,128668.0,152571.0,11729.0
1680104310665608,128655.0,152631.0,11701.0
1680104310675608,128674.0,152621.0,11718.0
1680104310684608,128639.0,152664.0,11713.0
1680104310695608,128678.0,152630.0,11694.0
1680104310705608,128666.0,152634.0,11730.0
1680104310717608,128653.0,152641.0,11710.0
1680104310724608,128655.0,152632.0,11721.0
1680104310735608,128628.0,152648.0,11727.0
1680104310746608,128683.0,152644.0,11702.0
1680104310754608,128659.0,152592.0,11716.0
1680104310765607,128659.0,152625.0,11700.0
1680104310775607,128706.0,152636.0,11713.0
1680104310787608,128671.0,152668.0,11722.0
1680104310796608,128636.0,152628.0,11756.0
1680104310805608,128623.0,152604.0,11736.0
1680104310815608,128665.0,152561.0,11732.0
1680104310827608,128657.0,152642.0,11717.0
1680104310836608,128669.0,152607.0,11715.0
1680104310845608,128609.0,152593.0,11717.0
1680104310855608,128635.0,152643.0,11716.0
1680104310865608,128653.0,152598.0,11727.0
1680104310876608,128712.0,152631.0,11727.0
1680104310886608,128670.0,152681.0,11720.0
1680104310895608,128672.0,152551.0,11754.0
1680104310905608,128647.0,152576.0,11731.0
1680104310917608,128710.0,152637.0,11734.0
1680104310924608,128708.0,152565.0,11782.0
1680104310935608,128738.0,152531.0,11766.0
1680104310945608,128796.0,152547.0,11774.0
1680104310957608,128767.0,152518.0,11765.0
1680104310965608,128763.0,152484.0,11776.0
1680104310974608,128724.0,152485.0,11779.0
1680104310986608,128753.0,152502.0,11722.0
1680104310996608,128750.0,152502.0,11762.0
1680104311004608,128710.0,152527.0,11760.0
1680104311014608,128757.0,152517.0,11760.0
1680104311026608,128746.0,152540.0,11717.0
1680104311036608,128702.0,152579.0,11740.0
1680104311045608,128720.0,152552.0,11745.0
1680104311054608,128685.0,152564.0,11753.0
1680104311066608,128716.0,152593.0,11720.0
1680104311075608,128703.0,152554.0,11728.0
1680104311085608,128700.0,152614.0,11726.0
1680104311095608,128687.0,152640.0,11733.0
1680104311105608,128684.0,152654.0,11713.0
1680104311117608,128654.0,152679.0,11717.0
1680104311125608,128673.0,152621.0,11739.0
1680104311134608,128678.0,152642.0,11684.0
1680104311146608,128649.0,152655.0,11692.0
1680104311156608,128627.0,152645.0,11717.0
1680104311165608,128678.0,152630.0,11713.0
1680104311174608,128673.0,152635.0,11724.0
1680104311186608,128663.0,152636.0,11716.0
1680104311195608,128660.0,152650.0,11765.0
1680104311205608,128683.0,152602.0,11731.0
1680104311215608,128741.0,152620.0,11739.0
1680104311225608,128711.0,152651.0,11726.0
1680104311236608,128708.0,152661.0,11731.0
1680104311245608,128712.0,152603.0,11747.0
1680104311254608,128668.0,152626.0,11729.0
1680104311265608,128705.0,152637.0,11685.0
1680104311277608,128709.0,152617.0,11721.0
1680104311284608,128689.0,152609.0,11740.0
1680104311295608,128701.0,152627.0,11720.0
1680104311304608,128701.0,152618.0,11736.0
1680104311316608,128696.0,152632.0,11719.0
1680104311325608,128695.0,152627.0,11728.0
1680104311335608,128691.0,152650.0,11718.0
1680104311345608,128735.0,152644.0,11719.0
1680104311356608,128682.0,152693.0,11717.0
1680104311365608,128677.0,152602.0,11742.0
1680104311375608,128677.0,152662.0,11691.0
1680104311384608,128682.0,152715.0,11712.0
1680104311395608,128630.0,152674.0,11727.0
1680104311405608,128684.0,152690.0,11716.0
1680104311415608,128699.0,152665.0,11718.0
1680104311424608,128647.0,152698.0,11712.0
1680104311435608,128661.0,152607.0,11724.0
1680104311445608,128732.0,152687.0,11699.0
1680104311456608,128702.0,152674.0,11716.0
1680104311465608,128673.0,152672.0,11710.0
1680104311477608,128645.0,152664.0,11706.0
1680104311485607,128674.0,152630.0,11718.0
1680104311495607,128666.0,152645.0,11720.0
1680104311505607,128745.0,152684.0,11718.0
1680104311514608,128673.0,152660.0,11712.0
1680104311525607,128673.0,152679.0,11713.0
1680104311535607,128680.0,152702.0,11717.0
1680104311546607,128721.0,152688.0,11723.0
1680104311554607,128627.0,152732.0,11712.0
1680104311565607,128673.0,152637.0,11719.0
1680104311575607,128718.0,152699.0,11718.0
1680104311586607,128684.0,152705.0,11717.0
1680104311595607,128675.0,152698.0,11706.0
1680104311607607,128678.0,152683.0,11706.0
1680104311614607,128682.0,152633.0,11707.0
1680104311625607,128658.0,152707.0,11678.0
1680104311635607,128677.0,152704.0,11711.0
1680104311644607,128661.0,152686.0,11705.0
1680104311655608,128676.0,152694.0,11696.0
1680104311665608,128681.0,152689.0,11719.0
1680104311676607,128719.0,152690.0,11713.0
1680104311684607,128690.0,152671.0,11732.0
1680104311695607,128694.0,152641.0,11727.0
1680104311706607,128758.0,152642.0,11738.0
1680104311714607,128718.0,152614.0,11776.0
1680104311725607,128764.0,152559.0,11753.0
1680104311735607,128821.0,152581.0,11754.0
1680104311745607,128766.0,152573.0,11765.0
1680104311756607,128778.0,152527.0,11766.0
1680104311764607,128796.0,152519.0,11761.0
1680104311774607,128794.0,152552.0,11724.0
1680104311786607,128786.0,152571.0,11739.0
1680104311796607,128752.0,152590.0,11758.0
1680104311804607,128780.0,152604.0,11745.0
1680104311814607,128766.0,152610.0,11746.0
1680104311826607,128770.0,152637.0,11727.0
1680104311835608,128746.0,152601.0,11737.0
1680104311844608,128701.0,152635.0,11743.0
1680104311855608,128787.0,152657.0,11734.0
1680104311866608,128712.0,152723.0,11723.0
1680104311877607,128732.0,152628.0,11742.0
1680104311884607,128714.0,152687.0,11722.0
1680104311894607,128710.0,152706.0,11718.0
1680104311906607,128714.0,152705.0,11697.0
1680104311916607,128693.0,152720.0,11705.0
1680104311924607,128709.0,152687.0,11699.0
1680104311934607,128690.0,152720.0,11709.0
1680104311946607,128665.0,152720.0,11694.0
1680104311956607,128689.0,152650.0,11709.0
1680104311964607,128698.0,152683.0,11711.0
1680104311974607,128699.0,152668.0,11716.0
1680104311986607,128684.0,152658.0,11715.0
1680104311996607,128711.0,152620.0,11724.0
1680104312004607,128713.0,152667.0,11754.0
1680104312015608,128728.0,152650.0,11734.0
1680104312024608,128758.0,152653.0,11733.0
1680104312036608,128721.0,152644.0,11696.0
1680104312046608,128718.0,152668.0,11719.0
1680104312054608,128710.0,152630.0,11725.0
1680104312064608,128724.0,152664.0,11731.0
1680104312076608,128734.0,152670.0,11701.0
1680104312085608,128721.0,152656.0,11718.0
1680104312094608,128703.0,152673.0,11736.0
1680104312105608,128679.0,152678.0,11706.0
1680104312114608,128728.0,152642.0,11710.0
1680104312125608,128699.0,152674.0,11709.0
1680104312134608,128718.0,152701.0,11714.0
1680104312146608,128690.0,152713.0,11712.0
1680104312156608,128723.0,152690.0,11708.0
1680104312165608,128720.0,152732.0,11750.0
1680104312174608,128720.0,152707.0,11711.0
1680104312185608,128747.0,152728.0,11710.0
1680104312195608,128656.0,152749.0,11710.0
1680104312204608,128685.0,152683.0,11704.0
1680104312214608,128718.0,152695.0,11694.0
1680104312224608,128699.0,152713.0,11721.0
1680104312236608,128668.0,152716.0,11700.0
1680104312246608,128703.0,152648.0,11708.0
1680104312254608,128700.0,152720.0,11728.0
1680104312264608,128697.0,152712.0,11710.0
1680104312275607,128750.0,152740.0,11704.0
1680104312285607,128714.0,152758.0,11699.0
1680104312296607,128689.0,152754.0,11705.0
1680104312304607,128703.0,152708.0,11730.0
1680104312315607,128715.0,152720.0,11713.0
1680104312324607,128733.0,152729.0,11711.0
1680104312336607,128707.0,152731.0,11683.0
1680104312344607,128697.0,152722.0,11691.0
1680104312354607,128685.0,152733.0,11719.0
1680104312366607,128708.0,152723.0,11675.0
1680104312375608,128709.0,152743.0,11683.0
1680104312385608,128659.0,152691.0,11705.0
1680104312395608,128699.0,152694.0,11699.0
1680104312407608,128704.0,152745.0,11703.0
1680104312415608,128709.0,152732.0,11709.0
1680104312424608,128710.0,152745.0,11718.0
1680104312435608,128741.0,152756.0,11706.0
1680104312445608,128705.0,152803.0,11693.0
1680104312455608,128700.0,152713.0,11699.0
1680104312464608,128678.0,152763.0,11684.0
1680104312475607,128746.0,152754.0,11700.0
1680104312484608,128648.0,152757.0,11748.0
1680104312495607,128689.0,152745.0,11709.0
1680104312504608,128764.0,152778.0,11719.0
1680104312516608,128715.0,152757.0,11706.0
1680104312526608,128699.0,152743.0,11740.0
1680104312535608,128720.0,152727.0,11714.0
1680104312544608,128683.0,152727.0,11724.0
1680104312555608,128759.0,152712.0,11736.0
1680104312565608,128790.0,152636.0,11742.0
1680104312574608,128804.0,152656.0,11745.0
1680104312584608,128787.0,152631.0,11749.0
1680104312594608,128845.0,152615.0,11758.0
1680104312606608,128825.0,152654.0,11766.0
1680104312616608,128794.0,152591.0,11799.0
1680104312625608,128834.0,152555.0,11789.0
1680104312635608,128802.0,152547.0,11771.0
1680104312644608,128814.0,152627.0,11789.0
1680104312655608,128812.0,152623.0,11753.0
1680104312664608,128838.0,152634.0,11745.0
1680104312674608,128786.0,152663.0,11726.0
1680104312684608,128793.0,152663.0,11729.0
1680104312695608,128813.0,152693.0,11693.0
1680104312705608,128770.0,152741.0,11723.0
1680104312714608,128724.0,152767.0,11718.0
1680104312724608,128768.0,152690.0,11711.0
1680104312735608,128789.0,152724.0,11722.0
1680104312746608,128745.0,152769.0,11713.0
1680104312754608,128746.0,152733.0,11701.0
1680104312765607,128693.0,152746.0,11710.0
1680104312775607,128722.0,152780.0,11706.0
1680104312785607,128750.0,152740.0,11699.0
1680104312794608,128734.0,152767.0,11720.0
1680104312805607,128715.0,152770.0,11707.0
1680104312815607,128752.0,152712.0,11703.0
1680104312825607,128723.0,152743.0,11711.0
1680104312834607,128754.0,152719.0,11705.0
1680104312845607,128760.0,152766.0,11670.0
1680104312855607,128763.0,152735.0,11713.0
1680104312865607,128740.0,152747.0,11712.0
1680104312874607,128772.0,152731.0,11722.0
1680104312886608,128767.0,152747.0,11667.0
1680104312896608,128782.0,152726.0,11728.0
1680104312904607,128777.0,152674.0,11713.0
1680104312914608,128768.0,152738.0,11680.0
1680104312926608,128764.0,152744.0,11696.0
1680104312933608,128764.0,152729.0,11720.0
1680104312944608,128773.0,152707.0,11685.0
1680104312955608,128770.0,152715.0,11716.0
1680104312964608,128765.0,152789.0,11705.0
1680104312976608,128754.0,152740.0,11710.0
1680104312986608,128757.0,152740.0,11708.0
1680104312994608,128750.0,152711.0,11705.0
1680104313004608,128751.0,152745.0,11688.0
1680104313016608,128760.0,152775.0,11682.0
1680104313024608,128766.0,152714.0,11715.0
1680104313034608,128744.0,152749.0,11697.0
1680104313045607,128754.0,152753.0,11705.0
1680104313054607,128732.0,152777.0,11703.0
1680104313066608,128745.0,152812.0,11699.0
1680104313076608,128735.0,152781.0,11727.0
1680104313085608,128704.0,152775.0,11709.0
1680104313095608,128717.0,152750.0,11705.0
1680104313104608,128744.0,152783.0,11750.0
1680104313115608,128687.0,152802.0,11697.0
1680104313124608,128756.0,152781.0,11704.0
1680104313136608,128726.0,152775.0,11657.0
1680104313144608,128745.0,152765.0,11686.0
1680104313154608,128727.0,152780.0,11705.0
1680104313166608,128742.0,152787.0,11670.0
1680104313174608,128729.0,152752.0,11699.0
1680104313184608,128697.0,152705.0,11698.0
1680104313196608,128719.0,152801.0,11698.0
1680104313205608,128753.0,152777.0,11695.0
1680104313213608,128714.0,152759.0,11709.0
1680104313226608,128738.0,152782.0,11675.0
1680104313234608,128752.0,152786.0,11700.0
1680104313244608,128715.0,152761.0,11714.0
1680104313255607,128731.0,152762.0,11676.0
1680104313264608,128749.0,152754.0,11695.0
1680104313274608,128737.0,152769.0,11707.0
1680104313284608,128721.0,152777.0,11690.0
1680104313296608,128705.0,152774.0,11696.0
1680104313303608,128733.0,152735.0,11703.0
1680104313314607,128701.0,152753.0,11711.0
1680104313325607,128740.0,152795.0,11707.0
1680104313334607,128720.0,152775.0,11701.0
1680104313344607,128747.0,152762.0,11682.0
1680104313355607,128734.0,152802.0,11671.0
1680104313365607,128725.0,152782.0,11695.0
1680104313374607,128748.0,152779.0,11700.0
1680104313386608,128711.0,152785.0,11689.0
1680104313393607,128732.0,152733.0,11700.0
1680104313404607,128718.0,152777.0,11678.0
1680104313415607,128737.0,152780.0,11698.0
1680104313424607,128690.0,152775.0,11698.0
1680104313434607,128727.0,152742.0,11708.0
1680104313446607,128746.0,152795.0,11701.0
1680104313455608,128773.0,152749.0,11729.0
1680104313463607,128730.0,152728.0,11717.0
1680104313474607,128814.0,152701.0,11689.0
1680104313484607,128831.0,152655.0,11757.0
1680104313495607,128884.0,152658.0,11755.0
1680104313504607,128822.0,152666.0,11758.0
1680104313514607,128858.0,152593.0,11766.0
1680104313524607,128846.0,152602.0,11740.0
1680104313535607,128877.0,152607.0,11761.0
1680104313546607,128850.0,152605.0,11753.0
1680104313554607,128782.0,152620.0,11763.0
1680104313563607,128845.0,152587.0,11760.0
1680104313575607,128835.0,152636.0,11715.0
1680104313584607,128830.0,152631.0,11744.0
1680104313594607,128810.0,152659.0,11699.0
1680104313606607,128791.0,152667.0,11717.0
1680104313614607,128759.0,152681.0,11732.0
1680104313624607,128798.0,152685.0,11694.0
1680104313635608,128798.0,152703.0,11713.0
1680104313643607,128754.0,152717.0,11703.0
1680104313654607,128762.0,152747.0,11679.0
1680104313664607,128773.0,152769.0,11717.0
1680104313676607,128726.0,152756.0,11688.0
1680104313683607,128748.0,152729.0,11714.0
1680104313694607,128730.0,152755.0,11708.0
1680104313705607,128761.0,152771.0,11707.0
1680104313713607,128752.0,152754.0,11700.0
1680104313723607,128763.0,152758.0,11695.0
1680104313735607,128766.0,152773.0,11680.0
1680104313744607,128758.0,152688.0,11705.0
1680104313754607,128782.0,152744.0,11678.0
1680104313765607,128787.0,152738.0,11722.0
1680104313775607,128769.0,152727.0,11713.0
1680104313784607,128794.0,152718.0,11714.0
1680104313794607,128784.0,152727.0,11729.0
1680104313805607,128787.0,152724.0,11710.0
1680104313814608,128798.0,152733.0,11717.0
1680104313824608,128784.0,152724.0,11723.0
1680104313835608,128816.0,152711.0,11723.0
1680104313845608,128756.0,152756.0,11711.0
1680104313854608,128782.0,152681.0,11744.0
1680104313864608,128729.0,152716.0,11724.0
1680104313876608,128788.0,152756.0,11711.0
1680104313884608,128767.0,152731.0,11741.0
1680104313894608,128740.0,152749.0,11716.0
1680104313904608,128797.0,152736.0,11715.0
1680104313916608,128768.0,152788.0,11699.0
1680104313924608,128764.0,152731.0,11713.0
1680104313933608,128734.0,152691.0,11712.0
1680104313945608,128771.0,152748.0,11664.0
1680104313955608,128771.0,152748.0,11707.0
1680104313964608,128739.0,152769.0,11699.0
1680104313973608,128759.0,152753.0,11701.0
1680104313984608,128769.0,152761.0,11711.0
1680104313995608,128758.0,152772.0,11698.0
1680104314004608,128763.0,152758.0,11700.0
1680104314014608,128734.0,152764.0,11692.0
1680104314024608,128771.0,152767.0,11689.0
1680104314035608,128782.0,152774.0,11712.0
1680104314045608,128751.0,152772.0,11707.0
1680104314054608,128768.0,152764.0,11702.0
1680104314063608,128700.0,152769.0,11719.0
1680104314074608,128762.0,152764.0,11708.0
1680104314085608,128705.0,152790.0,11689.0
1680104314093608,128751.0,152686.0,11697.0
1680104314103608,128742.0,152773.0,11686.0
1680104314114607,128753.0,152776.0,11702.0
1680104314124607,128756.0,152771.0,11697.0
1680104314133607,128754.0,152756.0,11665.0
1680104314144607,128758.0,152762.0,11707.0
1680104314154607,128700.0,152773.0,11692.0
1680104314166607,128749.0,152783.0,11700.0
1680104314173608,128734.0,152741.0,11728.0
1680104314184608,128748.0,152727.0,11693.0
1680104314195608,128767.0,152750.0,11705.0
1680104314204608,128733.0,152759.0,11718.0
1680104314214608,128737.0,152756.0,11698.0
1680104314225607,128771.0,152755.0,11699.0
1680104314234608,128715.0,152774.0,11741.0
1680104314244608,128722.0,152764.0,11712.0
1680104314254608,128783.0,152743.0,11709.0
1680104314263608,128743.0,152772.0,11693.0
1680104314274608,128730.0,152742.0,11694.0
1680104314284608,128775.0,152736.0,11690.0
1680104314296608,128731.0,152756.0,11684.0
1680104314303608,128703.0,152738.0,11735.0
1680104314314607,128726.0,152721.0,11693.0
1680104314325607,128748.0,152737.0,11697.0
1680104314334607,128691.0,152703.0,11728.0
1680104314344607,128722.0,152703.0,11700.0
1680104314353608,128712.0,152664.0,11709.0
1680104314364607,128745.0,152664.0,11693.0
1680104314375607,128777.0,152673.0,11710.0
1680104314383607,128776.0,152625.0,11746.0
1680104314394607,128777.0,152564.0,11733.0
1680104314404607,128856.0,152583.0,11758.0
1680104314416607,128798.0,152614.0,11742.0
1680104314423607,128835.0,152479.0,11780.0
1680104314434607,128820.0,152533.0,11740.0
1680104314444607,128868.0,152538.0,11762.0
1680104314456607,128810.0,152589.0,11749.0
1680104314465607,128826.0,152563.0,11774.0
1680104314474607,128790.0,152588.0,11754.0
1680104314483607,128791.0,152586.0,11741.0
1680104314495607,128804.0,152622.0,11700.0
1680104314505607,128809.0,152619.0,11725.0
1680104314513607,128807.0,152623.0,11724.0
1680104314524607,128792.0,152644.0,11738.0
1680104314534608,128742.0,152661.0,11709.0
1680104314546608,128777.0,152708.0,11717.0
1680104314553608,128762.0,152664.0,11753.0
1680104314564607,128769.0,152636.0,11702.0
1680104314574607,128786.0,152681.0,11709.0
1680104314584607,128749.0,152676.0,11680.0
1680104314595607,128713.0,152681.0,11698.0
1680104314603607,128724.0,152668.0,11703.0
1680104314614607,128732.0,152677.0,11699.0
1680104314624607,128744.0,152664.0,11691.0
1680104314635607,128773.0,152690.0,11700.0
1680104314645607,128687.0,152677.0,11743.0
1680104314654607,128737.0,152634.0,11730.0
1680104314664607,128702.0,152607.0,11722.0
1680104314674607,128778.0,152619.0,11717.0
1680104314684607,128749.0,152640.0,11721.0
1680104314696607,128763.0,152581.0,11722.0
1680104314704607,128772.0,152590.0,11720.0
1680104314713608,128768.0,152603.0,11718.0
1680104314725608,128757.0,152582.0,11729.0
1680104314735608,128756.0,152570.0,11706.0
1680104314744608,128747.0,152597.0,11761.0
1680104314754608,128765.0,152570.0,11720.0
1680104314763608,128753.0,152536.0,11717.0
1680104314775608,128745.0,152590.0,11684.0
1680104314784608,128733.0,152609.0,11695.0
1680104314794608,128712.0,152607.0,11717.0
1680104314804608,128736.0,152638.0,11674.0
1680104314814608,128757.0,152630.0,11710.0
1680104314823608,128742.0,152650.0,11713.0
1680104314835608,128751.0,152672.0,11697.0
1680104314845608,128737.0,152642.0,11706.0
1680104314854608,128742.0,152680.0,11686.0
1680104314863608,128695.0,152632.0,11704.0
1680104314875608,128707.0,152715.0,11658.0
1680104314883608,128695.0,152711.0,11703.0
1680104314893608,128728.0,152694.0,11710.0
1680104314905608,128726.0,152714.0,11665.0
1680104314913608,128733.0,152699.0,11701.0
1680104314923608,128722.0,152718.0,11697.0
1680104314935608,128728.0,152698.0,11709.0
1680104314943608,128723.0,152668.0,11709.0
1680104314954608,128731.0,152690.0,11699.0
1680104314963608,128730.0,152673.0,11720.0
1680104314974608,128765.0,152677.0,11707.0
1680104314983608,128732.0,152659.0,11697.0
1680104314994608,128726.0,152678.0,11699.0
1680104315004608,128732.0,152672.0,11718.0
1680104315015607,128742.0,152658.0,11704.0
1680104315023607,128741.0,152658.0,11722.0
1680104315034607,128729.0,152607.0,11715.0
1680104315044607,128769.0,152658.0,11720.0
1680104315055607,128734.0,152694.0,11701.0
1680104315065607,128722.0,152639.0,11736.0
1680104315074608,128669.0,152612.0,11711.0
1680104315084608,128677.0,152590.0,11708.0
1680104315094608,128728.0,152635.0,11672.0
1680104315104608,128690.0,152648.0,11694.0
1680104315113608,128722.0,152647.0,11713.0
1680104315124608,128721.0,152685.0,11713.0
1680104315133608,128716.0,152659.0,11699.0
1680104315143608,128731.0,152666.0,11665.0
1680104315154608,128721.0,152686.0,11705.0
1680104315164608,128714.0,152691.0,11699.0
1680104315173608,128718.0,152730.0,11695.0
1680104315183608,128720.0,152646.0,11698.0
1680104315194608,128767.0,152708.0,11700.0
1680104315204608,128714.0,152777.0,11697.0
1680104315215608,128709.0,152745.0,11693.0
1680104315225607,128712.0,152700.0,11720.0
1680104315233607,128682.0,152718.0,11699.0
1680104315243607,128701.0,152686.0,11696.0
1680104315254608,128713.0,152712.0,11666.0
1680104315263608,128732.0,152718.0,11698.0
1680104315273608,128724.0,152695.0,11707.0
1680104315284608,128749.0,152668.0,11718.0
1680104315293608,128762.0,152655.0,11720.0
1680104315304607,128785.0,152630.0,11707.0
1680104315315607,128789.0,152580.0,11744.0
1680104315323607,128815.0,152560.0,11741.0
1680104315333607,128820.0,152547.0,11729.0
1680104315343607,128834.0,152555.0,11754.0
1680104315355607,128795.0,152546.0,11741.0
1680104315363607,128819.0,152511.0,11758.0
1680104315374607,128813.0,152546.0,11762.0
1680104315383607,128807.0,152575.0,11754.0
1680104315394607,128854.0,152565.0,11755.0
1680104315403607,128802.0,152556.0,11735.0
1680104315414607,128792.0,152602.0,11732.0
1680104315423607,128824.0,152611.0,11699.0
1680104315435608,128814.0,152623.0,11739.0
1680104315444608,128719.0,152636.0,11764.0
1680104315453608,128776.0,152665.0,11705.0
1680104315463608,128717.0,152675.0,11722.0
1680104315473608,128747.0,152681.0,11723.0
1680104315485608,128754.0,152711.0,11701.0
1680104315495608,128731.0,152707.0,11737.0
1680104315504608,128742.0,152665.0,11722.0
1680104315513608,128673.0,152712.0,11702.0
1680104315525608,128733.0,152784.0,11690.0
1680104315533608,128729.0,152707.0,11733.0
1680104315544608,128707.0,152721.0,11699.0
1680104315554608,128767.0,152733.0,11682.0
1680104315563608,128733.0,152702.0,11732.0
1680104315574608,128733.0,152668.0,11711.0
1680104315583608,128782.0,152701.0,11717.0
1680104315595608,128748.0,152694.0,11668.0
1680104315605608,128761.0,152662.0,11721.0
1680104315613608,128757.0,152681.0,11723.0
1680104315624607,128732.0,152644.0,11697.0
1680104315633607,128757.0,152656.0,11702.0
1680104315644607,128779.0,152649.0,11718.0
1680104315655607,128721.0,152677.0,11722.0
1680104315664607,128750.0,152632.0,11745.0
1680104315673607,128681.0,152672.0,11727.0
1680104315685608,128777.0,152664.0,11714.0
1680104315695608,128768.0,152608.0,11746.0
1680104315704608,128730.0,152658.0,11687.0
1680104315712607,128702.0,152632.0,11705.0
1680104315725607,128745.0,152690.0,11681.0
1680104315735607,128753.0,152683.0,11713.0
1680104315743607,128744.0,152703.0,11725.0
1680104315753607,128721.0,152679.0,11696.0
1680104315765607,128744.0,152708.0,11678.0
1680104315775607,128733.0,152688.0,11702.0
1680104315783607,128740.0,152658.0,11714.0
1680104315793608,128731.0,152693.0,11685.0
1680104315804607,128735.0,152727.0,11673.0
1680104315813608,128727.0,152630.0,11700.0
1680104315823608,128718.0,152731.0,11701.0
1680104315834607,128730.0,152715.0,11717.0
1680104315842607,128742.0,152755.0,11700.0
1680104315853607,128723.0,152712.0,11700.0
1680104315864607,128730.0,152700.0,11712.0
1680104315874607,128723.0,152744.0,11704.0
1680104315883607,128712.0,152709.0,11701.0
1680104315893607,128733.0,152677.0,11698.0
1680104315904607,128763.0,152712.0,11720.0
1680104315914607,128683.0,152708.0,11697.0
1680104315923607,128725.0,152652.0,11699.0
1680104315933607,128690.0,152706.0,11707.0
1680104315945607,128733.0,152707.0,11705.0
1680104315955607,128704.0,152665.0,11734.0
1680104315963607,128722.0,152653.0,11699.0
1680104315973608,128683.0,152696.0,11712.0
1680104315985608,128670.0,152719.0,11701.0
1680104315994608,128701.0,152673.0,11681.0
1680104316003608,128670.0,152594.0,11697.0
1680104316015608,128683.0,152668.0,11661.0
1680104316025608,128709.0,152671.0,11687.0
1680104316033608,128701.0,152650.0,11715.0
1680104316043608,128700.0,152661.0,11681.0
1680104316054608,128699.0,152677.0,11691.0
1680104316063608,128713.0,152619.0,11702.0
1680104316073608,128676.0,152656.0,11714.0
1680104316084608,128710.0,152683.0,11710.0
1680104316092608,128695.0,152695.0,11695.0
1680104316103608,128703.0,152645.0,11691.0
1680104316113608,128690.0,152665.0,11698.0
1680104316125608,128648.0,152662.0,11692.0
1680104316132608,128686.0,152654.0,11691.0
1680104316143607,128663.0,152674.0,11707.0
1680104316153608,128707.0,152681.0,11715.0
1680104316165608,128726.0,152665.0,11697.0
1680104316174608,128708.0,152615.0,11761.0
1680104316183608,128749.0,152561.0,11764.0
1680104316193608,128741.0,152593.0,11738.0
1680104316203608,128761.0,152577.0,11709.0
1680104316214608,128800.0,152548.0,11746.0
1680104316222608,128795.0,152522.0,11747.0
1680104316233608,128805.0,152528.0,11738.0
1680104316243608,128814.0,152534.0,11771.0
1680104316254608,128766.0,152544.0,11750.0
1680104316262607,128795.0,152547.0,11744.0
1680104316273607,128799.0,152564.0,11755.0
1680104316283607,128788.0,152591.0,11739.0
1680104316295607,128787.0,152613.0,11737.0
1680104316303607,128758.0,152595.0,11777.0
1680104316313607,128763.0,152599.0,11736.0
1680104316323607,128797.0,152637.0,11727.0
1680104316335608,128760.0,152694.0,11723.0
1680104316343608,128728.0,152622.0,11762.0
1680104316353608,128661.0,152655.0,11729.0
1680104316364607,128749.0,152663.0,11721.0
1680104316374607,128723.0,152683.0,11703.0
1680104316382607,128716.0,152657.0,11699.0
1680104316393607,128676.0,152668.0,11711.0
1680104316403607,128711.0,152687.0,11709.0
1680104316414607,128735.0,152696.0,11705.0
1680104316423607,128713.0,152726.0,11700.0
1680104316435607,128699.0,152726.0,11710.0
1680104316445607,128693.0,152673.0,11692.0
1680104316453607,128692.0,152637.0,11702.0
1680104316462607,128702.0,152646.0,11690.0
1680104316474607,128711.0,152645.0,11718.0
1680104316484607,128717.0,152634.0,11709.0
1680104316493607,128726.0,152627.0,11709.0
1680104316503607,128717.0,152622.0,11727.0
1680104316515608,128680.0,152633.0,11719.0
1680104316523608,128724.0,152602.0,11724.0
1680104316533608,128730.0,152592.0,11717.0
1680104316544608,128762.0,152630.0,11690.0
1680104316554607,128723.0,152703.0,11719.0
1680104316563608,128720.0,152632.0,11750.0
1680104316573608,128730.0,152620.0,11708.0
1680104316585608,128719.0,152698.0,11716.0
1680104316592608,128719.0,152658.0,11741.0
1680104316603608,128711.0,152658.0,11712.0
1680104316614607,128748.0,152666.0,11702.0
1680104316624607,128693.0,152609.0,11709.0
1680104316633607,128721.0,152653.0,11714.0
1680104316642608,128696.0,152631.0,11719.0
1680104316654608,128701.0,152687.0,11666.0
1680104316664608,128713.0,152666.0,11711.0
1680104316673608,128691.0,152678.0,11705.0
1680104316683608,128707.0,152669.0,11711.0
1680104316695608,128669.0,152653.0,11716.0
1680104316703607,128688.0,152680.0,11679.0
1680104316712607,128651.0,152682.0,11711.0
1680104316724608,128697.0,152682.0,11718.0
1680104316734608,128698.0,152690.0,11700.0
1680104316743608,128703.0,152669.0,11701.0
1680104316753608,128688.0,152691.0,11713.0
1680104316762608,128662.0,152704.0,11696.0
1680104316773608,128692.0,152670.0,11660.0
1680104316783608,128682.0,152655.0,11707.0
1680104316794608,128708.0,152705.0,11686.0
1680104316804607,128695.0,152719.0,11709.0
1680104316813608,128686.0,152667.0,11734.0
1680104316823608,128681.0,152660.0,11710.0
1680104316833608,128685.0,152630.0,11681.0
1680104316844607,128689.0,152673.0,11708.0
1680104316852607,128633.0,152667.0,11714.0
1680104316863607,128671.0,152652.0,11679.0
1680104316873608,128681.0,152651.0,11710.0
1680104316884608,128698.0,152671.0,11688.0
1680104316894608,128687.0,152655.0,11721.0
1680104316903608,128671.0,152647.0,11732.0
1680104316913608,128671.0,152659.0,11712.0
1680104316923608,128697.0,152675.0,11711.0
1680104316933608,128670.0,152688.0,11702.0
1680104316942608,128668.0,152650.0,11683.0
1680104316954608,128655.0,152682.0,11661.0
1680104316963608,128612.0,152656.0,11692.0
1680104316972608,128668.0,152619.0,11695.0
1680104316984608,128686.0,152683.0,11665.0
1680104316994608,128654.0,152670.0,11705.0
1680104317003608,128649.0,152629.0,11700.0
1680104317012608,128673.0,152687.0,11656.0
1680104317024608,128647.0,152677.0,11669.0
1680104317034608,128625.0,152670.0,11709.0
1680104317043608,128683.0,152658.0,11709.0
1680104317053608,128689.0,152646.0,11722.0
1680104317062608,128699.0,152612.0,11720.0
1680104317073608,128720.0,152602.0,11722.0
1680104317083608,128741.0,152590.0,11750.0
1680104317094607,128775.0,152560.0,11719.0
1680104317103608,128747.0,152506.0,11794.0
1680104317113608,128780.0,152518.0,11740.0
1680104317123607,128812.0,152523.0,11765.0
1680104317132608,128743.0,152555.0,11759.0
1680104317143607,128779.0,152485.0,11763.0
1680104317152608,128813.0,152536.0,11755.0
1680104317164608,128751.0,152547.0,11729.0
1680104317173608,128748.0,152501.0,11741.0
1680104317185608,128706.0,152573.0,11744.0
1680104317192608,128736.0,152524.0,11731.0
1680104317203608,128717.0,152610.0,11708.0
1680104317212608,128716.0,152603.0,11727.0
1680104317222608,128701.0,152618.0,11722.0
1680104317233608,128720.0,152610.0,11707.0
1680104317243608,128702.0,152619.0,11727.0
1680104317254608,128715.0,152658.0,11706.0
1680104317262607,128687.0,152699.0,11714.0
1680104317273607,128661.0,152589.0,11714.0
1680104317284607,128698.0,152651.0,11712.0
1680104317293607,128672.0,152681.0,11752.0
1680104317303607,128675.0,152649.0,11681.0
1680104317313607,128676.0,152727.0,11701.0
1680104317324607,128660.0,152680.0,11701.0
1680104317333607,128668.0,152625.0,11725.0
1680104317343607,128640.0,152585.0,11723.0
1680104317354607,128664.0,152657.0,11712.0
1680104317363607,128679.0,152621.0,11727.0
1680104317373607,128629.0,152632.0,11713.0
1680104317382607,128689.0,152684.0,11720.0
1680104317393607,128665.0,152605.0,11718.0
1680104317403607,128713.0,152599.0,11717.0
1680104317415608,128673.0,152634.0,11717.0
1680104317424608,128670.0,152611.0,11745.0
1680104317432608,128664.0,152568.0,11721.0
1680104317442608,128675.0,152592.0,11688.0
1680104317454608,128669.0,152622.0,11703.0
1680104317462607,128666.0,152609.0,11716.0
1680104317472607,128628.0,152604.0,11725.0
1680104317483607,128669.0,152600.0,11723.0
1680104317493607,128663.0,152638.0,11707.0
1680104317504607,128669.0,152654.0,11711.0
1680104317512607,128657.0,152641.0,11745.0
1680104317523607,128652.0,152613.0,11681.0
1680104317534607,128675.0,152633.0,11717.0
1680104317543607,128644.0,152595.0,11741.0
1680104317553607,128611.0,152626.0,11713.0
1680104317563607,128648.0,152646.0,11705.0
1680104317575607,128637.0,152669.0,11710.0
1680104317585607,128635.0,152644.0,11705.0
1680104317592608,128644.0,152623.0,11709.0
1680104317603608,128639.0,152642.0,11717.0
1680104317613608,128674.0,152651.0,11713.0
1680104317623607,128663.0,152650.0,11717.0
1680104317632608,128630.0,152659.0,11705.0
1680104317643607,128586.0,152642.0,11710.0
1680104317653607,128655.0,152666.0,11716.0
1680104317665608,128636.0,152649.0,11708.0
1680104317674608,128631.0,152666.0,11675.0
1680104317682608,128624.0,152626.0,11693.0
1680104317692608,128617.0,152622.0,11673.0
1680104317704608,128638.0,152655.0,11686.0
1680104317712607,128625.0,152649.0,11710.0
1680104317722607,128618.0,152627.0,11713.0
1680104317733607,128627.0,152630.0,11715.0
1680104317743607,128628.0,152646.0,11705.0
1680104317754607,128618.0,152689.0,11705.0
1680104317762607,128632.0,152615.0,11719.0
1680104317773608,128571.0,152633.0,11702.0
1680104317784608,128633.0,152624.0,11704.0
1680104317794608,128599.0,152604.0,11707.0
1680104317802607,128622.0,152567.0,11700.0
1680104317812607,128623.0,152609.0,11681.0
1680104317823607,128616.0,152630.0,11713.0
1680104317834607,128637.0,152637.0,11711.0
1680104317842607,128602.0,152627.0,11732.0
1680104317853607,128606.0,152641.0,11695.0
1680104317862607,128645.0,152635.0,11710.0
1680104317874607,128597.0,152634.0,11690.0
1680104317882607,128596.0,152594.0,11711.0
1680104317893607,128608.0,152628.0,11688.0
1680104317902607,128645.0,152660.0,11704.0
1680104317914607,128604.0,152636.0,11669.0
1680104317923607,128563.0,152610.0,11710.0
1680104317932607,128626.0,152566.0,11719.0
1680104317942607,128605.0,152585.0,11735.0
1680104317954608,128673.0,152572.0,11714.0
1680104317963608,128690.0,152550.0,11742.0
1680104317972608,128642.0,152531.0,11783.0
1680104317982608,128711.0,152482.0,11769.0
1680104317992608,128771.0,152507.0,11761.0
1680104318004608,128716.0,152502.0,11710.0
1680104318014608,128712.0,152497.0,11741.0
1680104318023608,128697.0,152512.0,11751.0
1680104318032608,128671.0,152502.0,11741.0
1680104318044608,128684.0,152520.0,11712.0
1680104318054608,128698.0,152528.0,11736.0
1680104318062608,128686.0,152488.0,11738.0
1680104318072608,128664.0,152546.0,11740.0
1680104318084608,128658.0,152574.0,11699.0
1680104318092608,128652.0,152578.0,11711.0
1680104318102608,128617.0,152563.0,11728.0
1680104318113608,128636.0,152577.0,11724.0
1680104318123608,128665.0,152597.0,11704.0
1680104318132608,128633.0,152632.0,11707.0
1680104318142608,128603.0,152549.0,11705.0
1680104318152608,128624.0,152609.0,11677.0
1680104318164608,128593.0,152599.0,11677.0
1680104318173608,128556.0,152577.0,11700.0
1680104318182608,128585.0,152565.0,11708.0
1680104318192608,128587.0,152600.0,11700.0
1680104318204608,128572.0,152597.0,11690.0
1680104318212608,128585.0,152597.0,11699.0
1680104318222608,128560.0,152579.0,11714.0
1680104318233608,128605.0,152570.0,11715.0
1680104318242608,128611.0,152546.0,11708.0
1680104318252608,128610.0,152556.0,11701.0
1680104318262608,128609.0,152542.0,11712.0
1680104318274608,128592.0,152561.0,11702.0
1680104318282608,128612.0,152537.0,11718.0
1680104318293608,128616.0,152555.0,11714.0
1680104318303608,128638.0,152573.0,11720.0
1680104318312608,128626.0,152537.0,11709.0
1680104318323608,128604.0,152547.0,11720.0
1680104318333608,128653.0,152571.0,11704.0
1680104318343608,128605.0,152570.0,11714.0
1680104318352608,128601.0,152551.0,11731.0
1680104318363608,128593.0,152574.0,11673.0
1680104318372608,128638.0,152596.0,11702.0
1680104318384608,128563.0,152576.0,11668.0
1680104318394608,128595.0,152576.0,11715.0
1680104318403608,128593.0,152601.0,11699.0
1680104318412608,128564.0,152570.0,11696.0
1680104318423608,128567.0,152588.0,11658.0
1680104318434608,128581.0,152594.0,11697.0
1680104318442608,128566.0,152567.0,11696.0
1680104318452607,128569.0,152594.0,11656.0
1680104318463607,128565.0,152583.0,11669.0
1680104318473607,128542.0,152570.0,11690.0
1680104318482607,128568.0,152574.0,11724.0
1680104318493608,128575.0,152565.0,11703.0
1680104318502608,128610.0,152581.0,11698.0
1680104318512608,128572.0,152560.0,11711.0
1680104318524608,128531.0,152576.0,11685.0
1680104318532608,128564.0,152534.0,11702.0
1680104318542608,128571.0,152554.0,11709.0
1680104318552608,128568.0,152573.0,11706.0
