Data Set 1:Time(s),Data Set 1:Force(N),Data Set 1:Respiration Rate(bpm)
0,6.4665603637695312,17.556694030761719
0.099999999999999992,7.5728759765625,
0.19999999999999998,9.21063232421875,
0.29999999999999999,9.9030380249023438,
0.39999999999999997,9.9592437744140625,
0.5,9.5248947143554688,
0.59999999999999998,8.8810348510742188,
0.69999999999999996,8.2755050659179688,
0.79999999999999993,7.6725234985351562,
0.89999999999999991,7.1717453002929688,
1,6.7425003051757812,
1.0999999999999999,6.3720245361328125,
1.2,6.2238388061523438,
1.3,6.1216354370117188,
1.3999999999999999,5.9964447021484375,
1.5,5.82525634765625,
1.5999999999999999,5.5135498046875,
1.7,5.1711807250976562,
1.7999999999999998,4.961669921875,
1.8999999999999999,4.9999923706054688,
2,5.393463134765625,
2.1000000000000001,6.1778488159179688,
2.1999999999999997,7.105316162109375,
2.2999999999999998,7.8309326171875,
2.3999999999999999,8.2422866821289062,
2.5,8.6025390625,
2.6000000000000001,9.1876373291015625,
2.6999999999999997,9.6756439208984375,
2.7999999999999998,9.6577606201171875,
2.8999999999999999,9.0752182006835938,
3,8.0506591796875,
3.0999999999999996,6.9826736450195312,
3.1999999999999997,6.3158187866210938,
3.2999999999999998,5.7818222045898438,
3.3999999999999999,5.1430740356445312,
3.5,4.7444915771484375,
3.5999999999999996,4.9105682373046875,
3.6999999999999997,5.7102813720703125,
3.7999999999999998,6.716949462890625,
3.8999999999999999,7.600982666015625,
4,8.36492919921875,
4.0999999999999996,9.0190048217773438,
4.2000000000000002,9.50445556640625,
4.2999999999999998,9.826385498046875,
4.3999999999999995,10.048675537109375,
4.5,10.163650512695312,
4.5999999999999996,9.9234771728515625,
4.7000000000000002,9.3869247436523438,
4.7999999999999998,8.6204299926757812,
4.8999999999999995,7.8794784545898438,
5,7.3480377197265625,
5.0999999999999996,6.9903411865234375,
5.2000000000000002,6.6786270141601562,
5.2999999999999998,6.3822479248046875,
5.3999999999999995,6.3004913330078125,
5.5,6.3158187866210938,
5.5999999999999996,6.2621612548828125,
5.7000000000000002,6.15740966796875,
5.7999999999999998,6.019439697265625,
5.8999999999999995,5.8431396484375,
6,5.6821746826171875,
6.0999999999999996,5.577423095703125,
6.1999999999999993,5.5084381103515625,
6.2999999999999998,5.5288772583007812,
6.3999999999999995,5.5544281005859375,
6.5,5.5263214111328125,
6.5999999999999996,5.5825347900390625,
6.6999999999999993,5.5978622436523438,
6.7999999999999998,5.5237655639648438,
6.8999999999999995,5.4598922729492188,
7,5.4139022827148438,
7.0999999999999996,5.5901947021484375,
7.1999999999999993,6.0884246826171875,
7.2999999999999998,6.7322845458984375,
7.3999999999999995,7.342926025390625,
7.5,7.933135986328125,
7.5999999999999996,8.5667724609375,
7.6999999999999993,9.238739013671875,
7.7999999999999998,9.6909713745117188,
7.8999999999999995,9.43035888671875,
8,8.7277374267578125,
8.0999999999999996,8.21673583984375,
8.1999999999999993,7.8181610107421875,
8.2999999999999989,7.4706802368164062,
8.4000000000000004,7.1998443603515625,
8.5,6.829376220703125,
8.5999999999999996,6.4435653686523438,
8.6999999999999993,6.2008438110351562,
8.7999999999999989,6.0475387573242188,
8.9000000000000004,5.9683380126953125,
9,5.889129638671875,
9.0999999999999996,5.8380355834960938,
9.1999999999999993,5.797149658203125,
9.2999999999999989,5.6745147705078125,
9.4000000000000004,5.6336288452148438,
9.5,5.6821746826171875,
9.5999999999999996,5.6438522338867188,
9.6999999999999993,5.7000656127929688,
9.7999999999999989,6.0066604614257812,
9.9000000000000004,6.5943145751953125,
10,7.2867202758789062,17.253774642944336
10.1,8.0685501098632812,
10.199999999999999,8.6817474365234375,
10.299999999999999,9.1595306396484375,
10.4,9.7241897583007812,
10.5,10.112548828125,
10.6,9.974578857421875,
10.699999999999999,9.3460464477539062,
10.799999999999999,8.4799041748046875,
10.9,7.6444168090820312,
11,7.0695419311523438,
11.1,6.6786270141601562,
11.199999999999999,6.3899154663085938,
11.299999999999999,6.1599655151367188,
11.4,5.9121246337890625,
11.5,5.7945938110351562,
11.6,5.8124847412109375,
11.699999999999999,5.8763580322265625,
11.799999999999999,5.871246337890625,
11.899999999999999,5.8329238891601562,
12,5.8840255737304688,
12.1,5.9300155639648438,
12.199999999999999,5.9121246337890625,
12.299999999999999,5.8559188842773438,
12.399999999999999,5.8380355834960938,
12.5,5.8175888061523438,
12.6,5.9300155639648438,
12.699999999999999,6.3107070922851562,
12.799999999999999,6.7936019897460938,
12.899999999999999,7.2407302856445312,
13,7.7006301879882812,
13.1,8.2576141357421875,
13.199999999999999,8.7302932739257812,
13.299999999999999,9.0879898071289062,
13.399999999999999,9.1058807373046875,
13.5,8.531005859375,
13.6,7.8641510009765625,
13.699999999999999,7.3914718627929688,
13.799999999999999,6.9545669555664062,
13.899999999999999,6.4767837524414062,
14,6.1139755249023438,
14.1,5.9990005493164062,
14.199999999999999,5.9019088745117188,
14.299999999999999,5.7562713623046875,
14.399999999999999,5.64129638671875,
14.5,5.64129638671875,
14.6,5.651519775390625,
14.699999999999999,5.5927505493164062,
14.799999999999999,5.6208572387695312,
14.899999999999999,5.6719589233398438,
15,5.6719589233398438,
15.1,5.6464080810546875,
15.199999999999999,5.6259689331054688,
15.299999999999999,5.6310806274414062,
15.399999999999999,5.5927505493164062,
15.5,5.5799789428710938,
15.6,5.6336288452148438,
15.699999999999999,5.6617355346679688,
15.799999999999999,5.6668472290039062,
15.899999999999999,5.7383880615234375,
16,5.9938888549804688,
16.099999999999998,6.323486328125,
16.199999999999999,6.6735153198242188,
16.300000000000001,7.0950927734375,
16.399999999999999,7.4425735473632812,
16.5,7.767059326171875,
16.599999999999998,8.1043167114257812,
16.699999999999999,8.2678375244140625,
16.800000000000001,8.1656341552734375,
16.899999999999999,7.8053817749023438,
17,7.3684768676757812,
17.099999999999998,7.049102783203125,
17.199999999999999,6.80126953125,
17.300000000000001,6.56109619140625,
17.399999999999999,6.3260345458984375,
17.5,6.1216354370117188,
17.599999999999998,5.9990005493164062,
17.699999999999999,5.853363037109375,
17.800000000000001,5.7026138305664062,
17.899999999999999,5.6745147705078125,
18,5.6847305297851562,
18.099999999999998,5.6770706176757812,
18.199999999999999,5.7128372192382812,
18.300000000000001,5.7562713623046875,
18.399999999999999,5.7664947509765625,
18.5,5.7179489135742188,
18.599999999999998,5.6183013916015625,
18.699999999999999,5.595306396484375,
18.800000000000001,5.6208572387695312,
18.899999999999999,5.6208572387695312,
19,5.6080856323242188,
19.099999999999998,5.5850906372070312,
19.199999999999999,5.5748672485351562,
19.300000000000001,5.56719970703125,
19.399999999999999,5.4905548095703125,
19.5,5.4471206665039062,
19.599999999999998,5.5544281005859375,
19.699999999999999,5.7741546630859375,
19.800000000000001,6.1420745849609375,
19.899999999999999,6.5764312744140625,
20,6.9775619506835938,20.905921936035156
20.099999999999998,7.4323501586914062,
20.199999999999999,7.9075851440429688,
20.300000000000001,8.3061599731445312,
20.399999999999999,8.5744400024414062,
20.5,8.4594650268554688,
20.599999999999998,7.9561309814453125,
20.699999999999999,7.3914718627929688,
20.800000000000001,6.8855819702148438,
20.899999999999999,6.4665603637695312,
21,6.15740966796875,
21.099999999999998,5.8584747314453125,
21.199999999999999,5.6489639282226562,
21.300000000000001,5.5876388549804688,
21.399999999999999,5.54931640625,
21.5,5.503326416015625,
21.599999999999998,5.4547805786132812,
21.699999999999999,5.4190139770507812,
21.800000000000001,5.4266738891601562,
21.899999999999999,5.3781356811523438,
22,5.32958984375,
22.099999999999998,5.3909072875976562,
22.199999999999999,5.4522247314453125,
22.300000000000001,5.4726638793945312,
22.399999999999999,5.4522247314453125,
22.5,5.4036788940429688,
22.599999999999998,5.4266738891601562,
22.699999999999999,5.4241256713867188,
22.800000000000001,5.3576889038085938,
22.899999999999999,5.3628005981445312,
23,5.4445648193359375,
23.099999999999998,5.5723114013671875,
23.199999999999999,5.8456954956054688,
23.300000000000001,6.2723846435546875,
23.399999999999999,6.762939453125,
23.5,7.2356185913085938,
23.599999999999998,7.6495285034179688,
23.699999999999999,8.0762100219726562,
23.799999999999997,8.4696807861328125,
23.899999999999999,8.5156707763671875,
24,8.1094284057617188,
24.099999999999998,7.544769287109375,
24.199999999999999,7.07720947265625,
24.299999999999997,6.6684112548828125,
24.399999999999999,6.239166259765625,
24.5,5.9581146240234375,
24.599999999999998,5.8227005004882812,
24.699999999999999,5.6745147705078125,
24.799999999999997,5.6004180908203125,
24.899999999999999,5.577423095703125,
25,5.5544281005859375,
25.099999999999998,5.485443115234375,
25.199999999999999,5.3730239868164062,
25.299999999999997,5.3398056030273438,
25.399999999999999,5.4190139770507812,
25.5,5.4701156616210938,
25.599999999999998,5.429229736328125,
25.699999999999999,5.4420089721679688,
25.799999999999997,5.5135498046875,
25.899999999999999,5.5263214111328125,
26,5.6029739379882812,
26.099999999999998,5.9325637817382812,
26.199999999999999,6.433349609375,
26.299999999999997,6.9468994140625,
26.399999999999999,7.4425735473632812,
26.5,7.9484634399414062,
26.599999999999998,8.4543533325195312,
26.699999999999999,8.740509033203125,
26.799999999999997,8.5872116088867188,
26.899999999999999,8.0506591796875,
27,7.5345535278320312,
27.099999999999998,6.9775619506835938,
27.199999999999999,6.4895553588867188,
27.299999999999997,6.0500946044921875,
27.399999999999999,5.7256088256835938,
27.5,5.5697555541992188,
27.599999999999998,5.5442047119140625,
27.699999999999999,5.5084381103515625,
27.799999999999997,5.4317855834960938,
27.899999999999999,5.4036788940429688,
28,5.4343414306640625,
28.099999999999998,5.4420089721679688,
28.199999999999999,5.3806838989257812,
28.299999999999997,5.411346435546875,
28.399999999999999,5.4982147216796875,
28.5,5.4982147216796875,
28.599999999999998,5.4777755737304688,
28.699999999999999,5.4598922729492188,
28.799999999999997,5.5339889526367188,
28.899999999999999,5.7409439086914062,
29,6.165069580078125,
29.099999999999998,6.7654953002929688,
29.199999999999999,7.3505935668945312,
29.299999999999997,7.905029296875,
29.399999999999999,8.4620208740234375,
29.5,9.0931015014648438,
29.599999999999998,9.4201431274414062,
29.699999999999999,9.0445556640625,
29.799999999999997,8.3393783569335938,
29.899999999999999,7.7134017944335938,
30,7.15130615234375,20.604396820068359
30.099999999999998,6.6326370239257812,
30.199999999999999,6.2749404907226562,
30.299999999999997,6.0296554565429688,
30.399999999999999,5.8048171997070312,
30.5,5.669403076171875,
30.599999999999998,5.5850906372070312,
30.699999999999999,5.4752197265625,
30.799999999999997,5.4190139770507812,
30.899999999999999,5.3730239868164062,
31,5.337249755859375,
31.099999999999998,5.3628005981445312,
31.199999999999999,5.3985748291015625,
31.299999999999997,5.4368972778320312,
31.399999999999999,5.4598922729492188,
31.5,5.4471206665039062,
31.599999999999998,5.411346435546875,
31.699999999999999,5.7358322143554688,
31.799999999999997,6.3183746337890625,
31.899999999999999,6.8395919799804688,
32,7.48089599609375,
32.100000000000001,8.152862548828125,
32.199999999999996,8.760955810546875,
32.299999999999997,9.3051681518554688,
32.399999999999999,9.698638916015625,
32.5,9.8596038818359375,
32.600000000000001,9.4840164184570312,
32.699999999999996,8.6740798950195312,
32.799999999999997,7.9535751342773438,
32.899999999999999,7.4093551635742188,
33,6.9315719604492188,
33.100000000000001,6.515106201171875,
33.199999999999996,6.1727371215820312,
33.299999999999997,5.8789138793945312,
33.399999999999999,5.6259689331054688,
33.5,5.4777755737304688,
33.600000000000001,5.4139022827148438,
33.699999999999996,5.42156982421875,
33.799999999999997,5.45733642578125,
33.899999999999999,5.4420089721679688,
34,5.4241256713867188,
34.100000000000001,5.3525848388671875,
34.199999999999996,5.34747314453125,
34.299999999999997,5.4650039672851562,
34.399999999999999,5.5135498046875,
34.5,5.4087905883789062,
34.600000000000001,5.3500289916992188,
34.699999999999996,5.6745147705078125,
34.799999999999997,6.2442779541015625,
34.899999999999999,6.829376220703125,
35,7.4604568481445312,
35.100000000000001,8.1324234008789062,
35.199999999999996,8.7941665649414062,
35.299999999999997,9.3741531372070312,
35.399999999999999,9.9260330200195312,
35.5,10.20452880859375,
35.600000000000001,9.790618896484375,
35.699999999999996,8.980682373046875,
35.799999999999997,8.2933883666992188,
35.899999999999999,7.8104934692382812,
36,7.4374618530273438,
36.100000000000001,7.1002044677734375,
36.199999999999996,6.699066162109375,
36.299999999999997,6.331146240234375,
36.399999999999999,6.1139755249023438,
36.5,5.9325637817382812,
36.600000000000001,5.7818222045898438,
36.699999999999996,5.7000656127929688,
36.799999999999997,5.6285247802734375,
36.899999999999999,5.5237655639648438,
37,5.4139022827148438,
37.100000000000001,5.4011306762695312,
37.199999999999996,5.4062347412109375,
37.299999999999997,5.3704681396484375,
37.399999999999999,5.3116989135742188,
37.5,5.2759323120117188,
37.600000000000001,5.2427139282226562,
37.699999999999996,5.3091506958007812,
37.799999999999997,5.6566238403320312,
37.899999999999999,6.3618087768554688,
38,7.473236083984375,
38.100000000000001,9.108428955078125,
38.199999999999996,12.113113403320312,
38.299999999999997,16.648239135742188,
38.399999999999999,21.806781768798828,
38.5,27.407341003417969,
38.600000000000001,32.97979736328125,
38.699999999999996,36.975814819335938,
38.799999999999997,38.524147033691406,
38.899999999999999,38.169002532958984,
39,37.50469970703125,
39.100000000000001,37.767868041992188,
39.199999999999996,38.319747924804688,
39.299999999999997,37.788307189941406,
39.399999999999999,37.118896484375,
39.5,37.21087646484375,
39.600000000000001,37.318187713623047,
39.699999999999996,36.993701934814453,
39.799999999999997,36.526134490966797,
39.899999999999999,36.431602478027344,
40,37.543025970458984,0
40.100000000000001,41.298877716064453,
40.199999999999996,44.045501708984375,
40.299999999999997,43.552387237548828,
40.399999999999999,42.016830444335938,
40.5,40.373966217041016,
40.600000000000001,39.357074737548828,
40.699999999999996,39.191001892089844,
40.799999999999997,38.861404418945312,
40.899999999999999,37.94671630859375,
41,37.967155456542969,
41.100000000000001,38.526702880859375,
41.199999999999996,38.577800750732422,
41.299999999999997,38.411727905273438,
41.399999999999999,37.974822998046875,
41.5,36.130111694335938,
41.600000000000001,33.891929626464844,
41.699999999999996,32.892925262451172,
41.799999999999997,32.381927490234375,
41.899999999999999,32.095767974853516,
42,32.300167083740234,
42.100000000000001,32.711521148681641,
42.199999999999996,32.346157073974609,
42.299999999999997,31.574546813964844,
42.399999999999999,29.157516479492188,
42.5,23.679595947265625,
42.600000000000001,17.37896728515625,
42.699999999999996,12.741645812988281,
42.799999999999997,10.490684509277344,
42.899999999999999,9.3460464477539062,
43,8.2678375244140625,
43.100000000000001,7.1283111572265625,
43.199999999999996,6.0296554565429688,
43.299999999999997,5.2401657104492188,
43.399999999999999,4.8288040161132812,
43.5,4.6703948974609375,
43.600000000000001,4.5733108520507812,
43.699999999999996,4.5170974731445312,
43.799999999999997,4.5400924682617188,
43.899999999999999,4.5349807739257812,
44,4.4685516357421875,
44.100000000000001,4.3765716552734375,
44.199999999999996,4.2564849853515625,
44.299999999999997,4.2104949951171875,
44.399999999999999,4.31781005859375,
44.5,4.3561325073242188,
44.600000000000001,4.2513809204101562,
44.699999999999996,4.1491775512695312,
44.799999999999997,4.0853042602539062,
44.899999999999999,4.0290908813476562,
45,4.07763671875,
45.100000000000001,4.1823959350585938,
45.199999999999996,4.2207183837890625,
45.299999999999997,4.2130508422851562,
45.399999999999999,4.2615966796875,
45.5,4.4659957885742188,
45.600000000000001,5.0025482177734375,
45.699999999999996,5.6821746826171875,
45.799999999999997,6.4435653686523438,
45.899999999999999,7.26116943359375,
46,7.968902587890625,
46.100000000000001,8.2116241455078125,
46.199999999999996,7.8181610107421875,
46.299999999999997,7.268829345703125,
46.399999999999999,6.7348403930664062,
46.5,6.1420745849609375,
46.600000000000001,5.669403076171875,
46.699999999999996,5.3346939086914062,
46.799999999999997,5.0945281982421875,
46.899999999999999,5.01531982421875,
47,4.951446533203125,
47.100000000000001,4.8083648681640625,
47.199999999999996,4.6985015869140625,
47.299999999999997,4.6167449951171875,
47.399999999999999,4.5911941528320312,
47.5,4.6295166015625,
47.599999999999994,4.639739990234375,
47.699999999999996,4.6269607543945312,
47.799999999999997,4.6346282958984375,
47.899999999999999,4.601409912109375,
48,4.5503158569335938,
48.099999999999994,4.6065216064453125,
48.199999999999996,4.6780624389648438,
48.299999999999997,4.6627349853515625,
48.399999999999999,4.6039657592773438,
48.5,4.5707550048828125,
48.599999999999994,4.7700424194335938,
48.699999999999996,5.301483154296875,
48.799999999999997,5.9427871704101562,
48.899999999999999,6.5406570434570312,
49,7.176849365234375,
49.099999999999994,7.7363967895507812,
49.199999999999996,7.9765701293945312,
49.299999999999997,7.7159576416015625,
49.399999999999999,7.1334152221679688,
49.5,6.681182861328125,
49.599999999999994,6.3796920776367188,
49.699999999999996,5.9504547119140625,
49.799999999999997,5.5825347900390625,
49.899999999999999,5.2759323120117188,
50,5.01531982421875,0
50.099999999999994,4.8109207153320312,
50.199999999999996,4.693389892578125,
50.299999999999997,4.547760009765625,
50.399999999999999,4.4608840942382812,
50.5,4.4685516357421875,
50.599999999999994,4.4302291870117188,
50.699999999999996,4.3918991088867188,
50.799999999999997,4.381683349609375,
50.899999999999999,4.3126983642578125,
51,4.3024749755859375,
51.099999999999994,4.3918991088867188,
51.199999999999996,4.3970108032226562,
51.299999999999997,4.3484649658203125,
51.399999999999999,4.3203659057617188,
51.5,4.2871475219726562,
51.599999999999994,4.2999191284179688,
51.699999999999996,4.3408050537109375,
51.799999999999997,4.3229141235351562,
51.899999999999999,4.2845916748046875,
52,4.2692642211914062,
52.099999999999994,4.2181625366210938,
52.199999999999996,4.2283859252929688,
52.299999999999997,4.3024749755859375,
52.399999999999999,4.3203659057617188,
52.5,4.2973709106445312,
52.599999999999994,4.271820068359375,
52.699999999999996,4.2769241333007812,
52.799999999999997,4.1926116943359375,
52.899999999999999,4.1721725463867188,
53,4.2743759155273438,
53.099999999999994,4.3459091186523438,
53.199999999999996,4.4608840942382812,
53.299999999999997,4.7342758178710938,
53.399999999999999,5.209503173828125,
53.5,5.7026138305664062,
53.599999999999994,6.2085113525390625,
53.699999999999996,6.7859344482421875,
53.799999999999997,7.2356185913085938,
53.899999999999999,7.3301544189453125,
54,6.9877853393554688,
54.099999999999994,6.6019744873046875,
54.199999999999996,6.1599655151367188,
54.299999999999997,5.64129638671875,
54.399999999999999,5.1865081787109375,
54.5,4.9591140747070312,
54.599999999999994,4.785369873046875,
54.699999999999996,4.5988540649414062,
54.799999999999997,4.4302291870117188,
54.899999999999999,4.2948150634765625,
55,4.2488250732421875,
55.099999999999994,4.1823959350585938,
55.199999999999996,4.09552001953125,
55.299999999999997,4.1210708618164062,
55.399999999999999,4.1517333984375,
55.5,4.1440658569335938,
55.599999999999994,4.1287384033203125,
55.699999999999996,4.1031875610351562,
55.799999999999997,4.1031875610351562,
55.899999999999999,4.0674209594726562,
56,4.0393142700195312,
56.099999999999994,4.09552001953125,
56.199999999999996,4.13385009765625,
56.299999999999997,4.1491775512695312,
56.399999999999999,4.215606689453125,
