time,ecg,hr,rr,marker
1680726318777927308,0.14200000000000002,57
1680726318785623348,0.152
1680726318793319388,0.161
1680726318801015428,0.178
1680726318808711468,0.195
1680726318816407508,0.165
1680726318824103548,0.121
1680726318831799588,0.11800000000000001
1680726318839495628,0.133
1680726318847191668,0.131
1680726318854887708,0.138
1680726318862583748,0.148
1680726318870279788,0.148
1680726318877975828,0.159
1680726318885671868,0.176
1680726318893367908,0.186
1680726318901063948,0.203
1680726318908759988,0.218
1680726318916456028,0.20800000000000002
1680726318924152068,0.189
1680726318931848108,0.189
1680726318939544148,0.20600000000000002
1680726318947240188,0.21
1680726318954936228,0.214
1680726318962632268,0.227
1680726318970328308,0.22
1680726318978024348,0.20800000000000002
1680726318985720388,0.223
1680726318993416428,0.218
1680726319001112468,0.165
1680726319008808508,0.11800000000000001
1680726319016504548,0.114
1680726319024200588,0.112
1680726319031896628,0.063
1680726319039592668,-0.014
1680726319047288708,-0.061
1680726319054984748,-0.089
1680726319062680788,-0.135
1680726319070376828,-0.178
1680726319078072868,-0.186
1680726319085768908,-0.197
1680726319093464948,-0.225
1680726319101160988,-0.227
1680726319108857028,-0.199
1680726319116553068,-0.182
1680726319124249108,-0.157
1680726319131945148,-0.108
1680726319139641188,-0.097
1680726319147337228,-0.14400000000000002
1680726319155033268,-0.197,,1125
1680726319162729308,-0.233
1680726319170425348,-0.257
1680726319178121388,-0.271
1680726319185817428,-0.295
1680726319193513468,-0.329
1680726319201209508,-0.34800000000000003
1680726319208905548,-0.34600000000000003
1680726319216601588,-0.329
1680726319224297628,-0.303
1680726319231993668,-0.28600000000000003
1680726319239689708,-0.293
1680726319247385748,-0.28200000000000003
1680726319255081788,-0.233
1680726319262777828,-0.18
1680726319270473868,-0.14
1680726319278169908,-0.125
1680726319285865948,-0.116
1680726319293561988,-0.101
1680726319301258028,-0.091
1680726319308954068,-0.074
1680726319316650108,-0.038
1680726319324346148,-0.016
1680726319332042188,-0.01
1680726319339738256,0.012
1680726319347433878,0.027
1680726319355129500,0.016
1680726319362825122,0.004
1680726319370520744,0.002
1680726319378216366,0.006
1680726319385911988,-0.012
1680726319393607610,-0.059000000000000004
1680726319401303232,-0.082
1680726319408998854,-0.065
1680726319416694476,-0.07200000000000001
1680726319424390098,-0.078
1680726319432085720,0.036000000000000004
1680726319439781342,0.29
1680726319447476964,0.662
1680726319455172586,1.028
1680726319462868208,0.974
1680726319470563830,0.244
1680726319478259452,-0.452
1680726319485955074,-0.337
1680726319493650696,0.063
1680726319501346318,0.097
1680726319509041940,0.027
1680726319516737562,0.08700000000000001
1680726319524433184,0.131
1680726319532128806,0.11
1680726319539824428,0.099
1680726319547520050,0.10400000000000001
1680726319555215672,0.114
1680726319562911294,0.15
1680726319570606916,0.129
1680726319578302538,0.135
1680726319585998160,0.246
1680726319593693782,0.248
1680726319601389404,0.201
1680726319609085026,0.271
1680726319616780648,0.324
1680726319624476270,0.329
1680726319632171892,0.361
1680726319639867514,0.38
1680726319647563136,0.367
1680726319655258758,0.341
1680726319662954380,0.301
1680726319670650002,0.28
1680726319678345624,0.301
1680726319686041246,0.314
1680726319693736868,0.263
1680726319701432490,0.22
1680726319709128112,0.259
1680726319716823734,0.329
1680726319724519356,0.373
1680726319732214978,0.38
1680726319739910600,0.371
1680726319747606222,0.358
1680726319755301844,0.301
1680726319762997466,0.20800000000000002
1680726319770693088,0.184
1680726319778388710,0.20600000000000002
1680726319786084332,0.20800000000000002
1680726319793779954,0.28800000000000003
1680726319801475576,0.386
1680726319809171198,0.322
1680726319816866820,0.189
1680726319824562442,0.114
1680726319832258064,0.063
1680726319839953686,0.029
1680726319847649308,0.031
1680726319855344930,0.05
1680726319863040552,0.08
1680726319870736174,0.10400000000000001
1680726319878431796,0.084
1680726319886127418,0.074
1680726319893823040,0.101
1680726319901518686,0.11,57
1680726319909214726,0.097
1680726319916910766,0.093
1680726319924606806,0.07200000000000001
1680726319932302846,0.014
1680726319939998886,-0.042
1680726319947694926,-0.057
1680726319955390966,-0.055
1680726319963087006,-0.074
1680726319970783046,-0.093
1680726319978479086,-0.101
1680726319986175126,-0.11800000000000001
1680726319993871166,-0.148
1680726320001567206,-0.17200000000000001
1680726320009263246,-0.193
1680726320016959286,-0.229
1680726320024655326,-0.248
1680726320032351366,-0.233
1680726320040047406,-0.21
1680726320047743446,-0.193
1680726320055439486,-0.193
1680726320063135526,-0.186
1680726320070831566,-0.163
1680726320078527606,-0.169
1680726320086223646,-0.201
1680726320093919686,-0.148
1680726320101615726,-0.046,,946
1680726320109311766,-0.08700000000000001
1680726320117007806,-0.18
1680726320124703846,-0.14400000000000002
1680726320132399886,-0.091
1680726320140095926,-0.097
1680726320147791966,-0.082
1680726320155488006,-0.07
1680726320163184046,-0.074
1680726320170880086,0.093
1680726320178576126,0.494
1680726320186272166,0.875
1680726320193968206,0.847
1680726320201664246,0.14200000000000002
1680726320209360286,-0.581
1680726320217056326,-0.49
1680726320224752366,-0.14200000000000002
1680726320232448406,-0.121
1680726320240144446,-0.138
1680726320247840486,-0.099
1680726320255536526,-0.108
1680726320263232566,-0.112
1680726320270928606,-0.078
1680726320278624646,-0.04
1680726320286320686,-0.031
1680726320294016726,-0.046
1680726320301712766,-0.025
1680726320309408806,0.036000000000000004
1680726320317104846,0.048
1680726320324800886,0.038
1680726320332496926,0.061
1680726320340192966,0.076
1680726320347889006,0.074
1680726320355585046,0.093
1680726320363281086,0.125
1680726320370977126,0.148
1680726320378673166,0.163
1680726320386369206,0.167
1680726320394065246,0.14
1680726320401761286,0.114
1680726320409457326,0.133
1680726320417153366,0.165
1680726320424849406,0.163
1680726320432545446,0.157
1680726320440241486,0.163
1680726320447937526,0.17200000000000001
1680726320455633566,0.184
1680726320463329636,0.20800000000000002
1680726320471025676,0.20800000000000002
1680726320478721716,0.191
1680726320486417756,0.195
1680726320494113796,0.216
1680726320501809836,0.22
1680726320509505876,0.225
1680726320517201916,0.23700000000000002
1680726320524897956,0.214
1680726320532593996,0.167
1680726320540290036,0.15
1680726320547986076,0.138
1680726320555682116,0.095
1680726320563378156,0.061
1680726320571074196,0.061
1680726320578770236,0.067
1680726320586466276,0.057
1680726320594162316,0.044
1680726320601858356,0.059000000000000004
1680726320609554396,0.082
1680726320617250436,0.07200000000000001
1680726320624946476,0.046
1680726320632642516,0.031
1680726320640338556,0.016
1680726320648034596,0.006
1680726320655730636,-0.033
1680726320663426676,-0.146
1680726320671122716,-0.233
1680726320678818756,-0.218
1680726320686514796,-0.199
1680726320694210836,-0.182
1680726320701906876,-0.14200000000000002
1680726320709602916,-0.146
1680726320717298956,-0.167
1680726320724994996,-0.157
1680726320732691036,-0.135
1680726320740387076,-0.123
1680726320748083116,-0.121
1680726320755779156,-0.127
1680726320763475196,-0.108
1680726320771171236,-0.067
1680726320778867276,-0.042
1680726320786563316,-0.027
1680726320794259356,-0.004
1680726320801955396,0.0
1680726320809651436,-0.008
1680726320817347476,0.006
1680726320825043516,0.031
1680726320832739556,0.038
1680726320840435596,0.036000000000000004
1680726320848131636,0.042
1680726320855827676,0.065
1680726320863523716,0.076
1680726320871219756,0.059000000000000004
1680726320878915796,0.029
1680726320886611836,0.008
1680726320894307876,0.14400000000000002
1680726320902003916,0.5730000000000001
1680726320909699956,1.03
1680726320917395996,0.936
1680726320925092036,0.101
1680726320932788076,-0.618
1680726320940484116,-0.492
1680726320948180156,-0.17200000000000001
1680726320955876196,-0.218
1680726320963572236,-0.265
1680726320971268276,-0.193
1680726320978964316,-0.20600000000000002
1680726320986660356,-0.242
1680726320994356396,-0.199
1680726321002052436,-0.161
1680726321009748476,-0.178
1680726321017444516,-0.176
1680726321025140584,-0.146,60
1680726321032836206,-0.14400000000000002,,928
1680726321040531828,-0.14400000000000002
1680726321048227450,-0.101
1680726321055923072,-0.055
1680726321063618694,-0.038
1680726321071314316,-0.044
1680726321079009938,-0.046
1680726321086705560,-0.023
1680726321094401182,-0.002
1680726321102096804,-0.027
1680726321109792426,-0.061
1680726321117488048,-0.046
1680726321125183670,-0.014
1680726321132879292,-0.021
1680726321140574914,-0.036000000000000004
1680726321148270536,-0.025
1680726321155966158,-0.004
1680726321163661780,-0.019
1680726321171357402,-0.07
1680726321179053024,-0.11
1680726321186748646,-0.108
1680726321194444268,-0.095
1680726321202139890,-0.074
1680726321209835512,-0.046
1680726321217531134,-0.057
1680726321225226756,-0.067
1680726321232922378,-0.04
1680726321240618000,-0.019
1680726321248313622,-0.036000000000000004
1680726321256009244,-0.061
1680726321263704866,-0.067
1680726321271400488,-0.07
1680726321279096110,-0.074
1680726321286791732,-0.07
1680726321294487354,-0.053
1680726321302182976,-0.036000000000000004
1680726321309878598,-0.04
1680726321317574220,-0.038
1680726321325269842,-0.014
1680726321332965464,0.014
1680726321340661086,0.033
1680726321348356708,0.038
1680726321356052330,0.04
1680726321363747952,0.055
1680726321371443574,0.07
1680726321379139196,0.055
1680726321386834818,0.044
1680726321394530440,0.057
1680726321402226062,0.055
1680726321409921684,0.042
1680726321417617306,0.057
1680726321425312928,0.08
1680726321433008550,0.08
1680726321440704172,0.074
1680726321448399794,0.099
1680726321456095416,0.127
1680726321463791038,0.129
1680726321471486660,0.135
1680726321479182282,0.161
1680726321486877904,0.189
1680726321494573526,0.191
1680726321502269148,0.201
1680726321509964770,0.233
1680726321517660392,0.227
1680726321525356014,0.184
1680726321533051636,0.191
1680726321540747258,0.218
1680726321548442880,0.20600000000000002
1680726321556138502,0.193
1680726321563834124,0.216
1680726321571529746,0.24
1680726321579225368,0.23500000000000001
1680726321586921014,0.218
1680726321594617054,0.20600000000000002
1680726321602313094,0.242
1680726321610009134,0.452
1680726321617705174,0.885
1680726321625401214,1.268
1680726321633097254,1.066
1680726321640793294,0.182
1680726321648489334,-0.448
1680726321656185374,-0.21
1680726321663881414,0.11
1680726321671577454,0.025
1680726321679273494,-0.084
1680726321686969534,-0.097
1680726321694665574,-0.116
1680726321702361614,-0.123
1680726321710057654,-0.11800000000000001
1680726321717753694,-0.131
1680726321725449734,-0.152
1680726321733145774,-0.159
1680726321740841814,-0.14200000000000002
1680726321748537854,-0.15
1680726321756233894,-0.184
1680726321763929934,-0.195
1680726321771625974,-0.195
1680726321779322014,-0.203
1680726321787018054,-0.203
1680726321794714094,-0.184
1680726321802410134,-0.161
1680726321810106174,-0.138
1680726321817802214,-0.131
1680726321825498254,-0.129
1680726321833194294,-0.099
1680726321840890334,-0.074
1680726321848586374,-0.078,,815
1680726321856282414,-0.08700000000000001
1680726321863978454,-0.082
1680726321871674494,-0.093
1680726321879370534,-0.11800000000000001
1680726321887066574,-0.114
1680726321894762614,-0.076
1680726321902458654,-0.067
1680726321910154694,-0.089
1680726321917850734,-0.08700000000000001
1680726321925546774,-0.053
1680726321933242814,-0.029
1680726321940938854,-0.021
1680726321948634894,0.0
1680726321956330934,0.0
1680726321964026974,-0.021
1680726321971723014,-0.01
1680726321979419054,0.012
1680726321987115094,0.008
1680726321994811134,0.0
1680726322002507174,-0.016
1680726322010203214,-0.029
1680726322017899254,0.004
1680726322025595294,0.029
1680726322033291334,0.014
1680726322040987374,0.025
1680726322048683414,0.057
1680726322056379454,0.059000000000000004
1680726322064075494,0.05
1680726322071771534,0.07
1680726322079467574,0.095
1680726322087163614,0.11
1680726322094859654,0.106
1680726322102555694,0.106
1680726322110251734,0.11800000000000001
1680726322117947774,0.108
1680726322125643814,0.065
1680726322133339854,0.059000000000000004
1680726322141035894,0.089
1680726322148731962,0.099,62
1680726322156427584,0.099
1680726322164123206,0.11800000000000001
1680726322171818828,0.121
1680726322179514450,0.08700000000000001
1680726322187210072,0.05
1680726322194905694,0.057
1680726322202601316,0.089
1680726322210296938,0.07200000000000001
1680726322217992560,0.0
1680726322225688182,-0.036000000000000004
1680726322233383804,-0.036000000000000004
1680726322241079426,-0.042
1680726322248775048,-0.036000000000000004
1680726322256470670,-0.014
1680726322264166292,-0.029
1680726322271861914,-0.048
1680726322279557536,-0.025
1680726322287253158,-0.008
1680726322294948780,-0.023
1680726322302644402,-0.01
1680726322310340024,0.212
1680726322318035646,0.726
1680726322325731268,1.189
1680726322333426890,1.028
1680726322341122512,0.186
1680726322348818134,-0.382
1680726322356513756,-0.123
1680726322364209378,0.169
1680726322371905000,0.07200000000000001
1680726322379600622,0.05
1680726322387296244,0.161
1680726322394991866,0.191
1680726322402687488,0.22
1680726322410383110,0.267
1680726322418078732,0.246
1680726322425774354,0.23500000000000001
1680726322433469976,0.271
1680726322441165598,0.257
1680726322448861220,0.21
1680726322456556842,0.184
1680726322464252464,0.17200000000000001
1680726322471948086,0.252
1680726322479643708,0.34600000000000003
1680726322487339330,0.301
1680726322495034952,0.263
1680726322502730574,0.293
1680726322510426196,0.269
1680726322518121818,0.223
1680726322525817440,0.22
1680726322533513062,0.229
1680726322541208684,0.22
1680726322548904306,0.186
1680726322556599928,0.123
1680726322564295550,0.053
1680726322571991172,0.038
1680726322579686794,0.089
1680726322587382416,0.131
1680726322595078038,0.125
1680726322602773660,0.084
1680726322610469282,0.055
1680726322618164904,0.038
1680726322625860526,0.01
1680726322633556148,-0.004
1680726322641251770,0.002,,794
1680726322648947392,-0.002
1680726322656643014,-0.01
1680726322664338636,-0.019
1680726322672034258,-0.042
1680726322679729880,-0.076
1680726322687425502,-0.146
1680726322695121124,-0.227
1680726322702816746,-0.225
1680726322710512392,-0.17200000000000001,64
1680726322718208432,-0.189
1680726322725904472,-0.23500000000000001
1680726322733600512,-0.216
1680726322741296552,-0.197
1680726322748992592,-0.23700000000000002
1680726322756688632,-0.269
1680726322764384672,-0.248
1680726322772080712,-0.223
1680726322779776752,-0.225
1680726322787472792,-0.23700000000000002
1680726322795168832,-0.216
1680726322802864872,-0.165
1680726322810560912,-0.157
1680726322818256952,-0.18
1680726322825952992,-0.152
1680726322833649032,-0.099
1680726322841345072,-0.114
1680726322849041112,-0.203
1680726322856737152,-0.25
1680726322864433192,-0.184
1680726322872129232,-0.131
1680726322879825272,-0.135
1680726322887521312,-0.112
1680726322895217352,-0.063
1680726322902913392,-0.053
1680726322910609432,-0.036000000000000004
1680726322918305472,-0.004
1680726322926001512,-0.044
1680726322933697552,-0.059000000000000004
1680726322941393592,0.012
1680726322949089632,0.008
1680726322956785672,-0.004
1680726322964481712,0.07
1680726322972177752,0.08
1680726322979873792,0.053
1680726322987569832,0.146
1680726322995265872,0.446
1680726323002961912,0.919
1680726323010657952,1.2590000000000001
1680726323018353992,0.862
1680726323026050032,-0.11800000000000001
1680726323033746072,-0.452
1680726323041442112,0.01
1680726323049138152,0.216
1680726323056834192,0.101
1680726323064530232,0.133
1680726323072226272,0.20800000000000002
1680726323079922312,0.191
1680726323087618352,0.17200000000000001
1680726323095314392,0.178
1680726323103010432,0.14400000000000002
1680726323110706472,0.082
1680726323118402512,0.065
1680726323126098552,0.091
1680726323133794592,0.106
1680726323141490632,0.099
1680726323149186672,0.106
1680726323156882712,0.127
1680726323164578752,0.116
1680726323172274792,0.08700000000000001
1680726323179970832,0.08700000000000001
1680726323187666872,0.084
1680726323195362912,0.036000000000000004
1680726323203058952,-0.004
1680726323210754992,0.025
1680726323218451032,0.078
1680726323226147072,0.08
1680726323233843112,0.053
1680726323241539152,0.055
1680726323249235192,0.059000000000000004
1680726323256931232,0.031
1680726323264627272,-0.021
1680726323272323340,-0.023
1680726323280018962,0.042
1680726323287714584,0.048
1680726323295410206,-0.027
1680726323303105828,-0.07
1680726323310801450,-0.07
1680726323318497072,-0.114
1680726323326192694,-0.189
1680726323333888316,-0.20800000000000002
1680726323341583938,-0.20800000000000002
1680726323349279560,-0.246
1680726323356975182,-0.301
1680726323364670804,-0.301
1680726323372366426,-0.28600000000000003
1680726323380062048,-0.324
1680726323387757670,-0.34800000000000003
1680726323395453292,-0.327
1680726323403148914,-0.301
1680726323410844536,-0.295,,771
1680726323418540158,-0.293
1680726323426235780,-0.269
1680726323433931402,-0.271
1680726323441627024,-0.297
1680726323449322646,-0.265
1680726323457018268,-0.186
1680726323464713890,-0.159
1680726323472409512,-0.212
1680726323480105134,-0.227
1680726323487800756,-0.169
1680726323495496378,-0.133
1680726323503192000,-0.14400000000000002
1680726323510887622,-0.131
1680726323518583244,-0.082
1680726323526278866,-0.061
1680726323533974488,-0.07
1680726323541670110,-0.038
1680726323549365732,0.012
1680726323557061354,0.031
1680726323564756976,0.036000000000000004
1680726323572452598,0.036000000000000004
1680726323580148220,0.029
1680726323587843842,0.038
1680726323595539464,0.025
1680726323603235086,-0.008
1680726323610930708,0.0
1680726323618626330,0.021
1680726323626321952,0.023
1680726323634017574,0.038
1680726323641713196,0.074
1680726323649408818,0.108
1680726323657104440,0.108
1680726323664800062,0.203
1680726323672495684,0.5710000000000001
1680726323680191306,1.004
1680726323687886928,1.0190000000000001
1680726323695582550,0.329
1680726323703278172,-0.48
1680726323710973794,-0.47300000000000003
1680726323718669416,-0.027
1680726323726365038,0.063
1680726323734060660,-0.016
1680726323741756282,-0.029
1680726323749451904,-0.027
1680726323757147526,0.019
1680726323764843148,0.065
1680726323772538770,0.065
1680726323780234392,0.093
1680726323787930014,0.138
1680726323795625636,0.14200000000000002
1680726323803321258,0.123
1680726323811016880,0.135
1680726323818712502,0.163
1680726323826408124,0.176
1680726323834103772,0.199,67
1680726323841799812,0.212
1680726323849495852,0.169
1680726323857191892,0.14200000000000002
1680726323864887932,0.163
1680726323872583972,0.178
1680726323880280012,0.197
1680726323887976052,0.22
1680726323895672092,0.203
1680726323903368132,0.197
1680726323911064172,0.212
1680726323918760212,0.186
1680726323926456252,0.159
1680726323934152292,0.17200000000000001
1680726323941848332,0.161
1680726323949544372,0.121
1680726323957240412,0.129
1680726323964936452,0.169
1680726323972632492,0.178
1680726323980328532,0.169
1680726323988024572,0.148
1680726323995720612,0.135
1680726324003416652,0.14
1680726324011112692,0.127
1680726324018808732,0.093
1680726324026504772,0.07
1680726324034200812,0.038
1680726324041896852,-0.036000000000000004
1680726324049592892,-0.091
1680726324057288932,-0.07200000000000001
1680726324064984972,-0.048
1680726324072681012,-0.074
1680726324080377052,-0.093
1680726324088073092,-0.138
1680726324095769132,-0.23500000000000001
1680726324103465172,-0.261
1680726324111161212,-0.233
1680726324118857252,-0.231
1680726324126553292,-0.225
1680726324134249332,-0.20800000000000002
1680726324141945372,-0.184,,731
1680726324149641412,-0.152
1680726324157337452,-0.131
1680726324165033492,-0.125
1680726324172729532,-0.133
1680726324180425572,-0.163
1680726324188121612,-0.184
1680726324195817652,-0.159
1680726324203513692,-0.135
1680726324211209732,-0.165
1680726324218905772,-0.199
1680726324226601812,-0.178
1680726324234297852,-0.135
1680726324241993892,-0.146
1680726324249689932,-0.178
1680726324257385972,-0.169
1680726324265082012,-0.148
1680726324272778052,-0.14200000000000002
1680726324280474092,-0.155
1680726324288170132,-0.15
1680726324295866172,-0.11
1680726324303562212,-0.084
1680726324311258252,-0.10400000000000001
1680726324318954292,-0.065
1680726324326650332,0.195
1680726324334346372,0.652
1680726324342042412,0.981
1680726324349738452,0.737
1680726324357434492,-0.074
1680726324365130532,-0.584
1680726324372826572,-0.307
1680726324380522612,0.014
1680726324388218652,-0.042
1680726324395914720,-0.084
1680726324403610342,-0.008
1680726324411305964,0.008
1680726324419001586,0.019
1680726324426697208,0.07200000000000001
1680726324434392830,0.097
1680726324442088452,0.095
1680726324449784074,0.099
1680726324457479696,0.097
1680726324465175318,0.061
1680726324472870940,0.044
1680726324480566562,0.08
1680726324488262184,0.099
1680726324495957806,0.093
1680726324503653428,0.108
1680726324511349050,0.133
1680726324519044672,0.15
1680726324526740294,0.169
1680726324534435916,0.197
1680726324542131538,0.214
1680726324549827160,0.20800000000000002
1680726324557522782,0.201
1680726324565218404,0.22
1680726324572914026,0.244
1680726324580609648,0.23700000000000002
1680726324588305270,0.20800000000000002
1680726324596000892,0.197
1680726324603696514,0.20800000000000002
1680726324611392136,0.21
1680726324619087758,0.218
1680726324626783380,0.233
1680726324634479002,0.233
1680726324642174624,0.259
1680726324649870246,0.341
1680726324657565868,0.433
1680726324665261490,0.446
1680726324672957112,0.41200000000000003
1680726324680652734,0.403
1680726324688348356,0.356
1680726324696043978,0.267
1680726324703739600,0.195
1680726324711435222,0.106
1680726324719130844,0.031
1680726324726826466,0.014
1680726324734522088,-0.027
1680726324742217710,-0.123
1680726324749913332,-0.212
1680726324757608954,-0.225
1680726324765304576,-0.148
1680726324773000198,-0.097
1680726324780695820,-0.11800000000000001
1680726324788391442,-0.138
1680726324796087064,-0.176
1680726324803782686,-0.229
1680726324811478308,-0.223
1680726324819173930,-0.20800000000000002
1680726324826869552,-0.244
1680726324834565174,-0.28200000000000003
1680726324842260796,-0.23700000000000002
1680726324849956418,-0.17200000000000001
1680726324857652040,-0.157
1680726324865347662,-0.114,,723
1680726324873043284,-0.057
1680726324880738906,-0.053
1680726324888434528,-0.025
1680726324896130150,0.01
1680726324903825772,0.029
1680726324911521394,0.07200000000000001
1680726324919217016,0.057
1680726324926912638,0.006
1680726324934608260,0.012
1680726324942303882,0.029
1680726324949999504,0.057
1680726324957695150,0.189,69
1680726324965391190,0.539
1680726324973087230,0.977
1680726324980783270,1.045
1680726324988479310,0.454
1680726324996175350,-0.271
1680726325003871390,-0.229
1680726325011567430,0.23500000000000001
1680726325019263470,0.248
1680726325026959510,0.065
1680726325034655550,0.189
1680726325042351590,0.356
1680726325050047630,0.135
1680726325057743670,-0.165
1680726325065439710,-0.112
1680726325073135750,-0.031
1680726325080831790,-0.082
1680726325088527830,-0.004
1680726325096223870,0.223
1680726325103919910,0.367
1680726325111615950,0.329
1680726325119311990,0.299
1680726325127008030,0.337
1680726325134704070,0.335
1680726325142400110,0.305
1680726325150096150,0.303
1680726325157792190,0.303
1680726325165488230,0.193
1680726325173184270,0.05
1680726325180880310,0.059000000000000004
1680726325188576350,0.112
1680726325196272390,0.106
1680726325203968430,0.108
1680726325211664470,0.114
1680726325219360510,0.067
1680726325227056550,0.016
1680726325234752590,0.004
1680726325242448630,-0.004
1680726325250144670,0.0
1680726325257840710,0.033
1680726325265536750,0.048
1680726325273232790,0.027
1680726325280928830,0.029
1680726325288624870,0.061
1680726325296320910,0.091
1680726325304016950,0.123
1680726325311712990,0.138
1680726325319409030,0.114
1680726325327105070,0.099
1680726325334801110,0.129
1680726325342497150,0.169
1680726325350193190,0.218
1680726325357889230,0.297
1680726325365585270,0.331
1680726325373281310,0.299
1680726325380977350,0.32
1680726325388673390,0.367
1680726325396369430,0.305
1680726325404065470,0.18
1680726325411761510,0.084
1680726325419457550,0.023
1680726325427153590,-0.08700000000000001
1680726325434849630,-0.11
1680726325442545670,0.165
1680726325450241710,0.34800000000000003
1680726325457937750,0.11
1680726325465633790,-0.089
1680726325473329830,0.027
1680726325481025870,0.114
1680726325488721910,0.029
1680726325496417950,-0.048
1680726325504113990,-0.029
1680726325511810030,0.04
1680726325519506098,0.046
1680726325527201720,0.044
1680726325534897342,0.11
1680726325542592964,0.14
1680726325550288586,0.07200000000000001
1680726325557984208,0.006
1680726325565679830,-0.008
1680726325573375452,-0.129
1680726325581071074,-0.312,,715
1680726325588766696,-0.178
1680726325596462318,0.378
1680726325604157940,0.928
1680726325611853562,0.936
1680726325619549184,0.271
1680726325627244806,-0.41400000000000003
1680726325634940428,-0.373
1680726325642636050,-0.036000000000000004
1680726325650331672,0.027
1680726325658027294,0.019
1680726325665722916,0.097
1680726325673418538,0.167
1680726325681114160,0.17200000000000001
1680726325688809782,0.157
1680726325696505404,0.129
1680726325704201026,0.08
1680726325711896648,0.027
1680726325719592270,-0.021
1680726325727287892,-0.027
1680726325734983514,-0.004
1680726325742679136,-0.016
1680726325750374758,-0.048
1680726325758070380,-0.042
1680726325765766002,-0.023
1680726325773461624,-0.012
1680726325781157246,-0.016
1680726325788852868,-0.031
1680726325796548490,-0.016
1680726325804244112,-0.023
1680726325811939734,-0.076
1680726325819635356,-0.08
1680726325827330978,-0.078
1680726325835026600,-0.129
1680726325842722222,-0.186
1680726325850417844,-0.20600000000000002
1680726325858113466,-0.14400000000000002
1680726325865809088,-0.076
1680726325873504710,-0.093
1680726325881200332,-0.101
1680726325888895954,0.002
1680726325896591576,0.116
1680726325904287198,0.123
1680726325911982820,0.091
1680726325919678442,0.074
1680726325927374064,-0.021
1680726325935069686,-0.07200000000000001
1680726325942765308,0.023
1680726325950460930,0.07200000000000001
1680726325958156552,0.074
1680726325965852174,0.057
1680726325973547796,-0.029
1680726325981243418,-0.065
1680726325988939040,-0.023
1680726325996634662,-0.038
1680726326004330284,-0.04
1680726326012025906,0.038
1680726326019721528,0.061
1680726326027417150,0.095
1680726326035112772,0.133
1680726326042808394,0.08
1680726326050504016,0.099
1680726326058199638,0.201
1680726326065895260,0.163
1680726326073590882,0.08
1680726326081286528,0.106,75
1680726326088982568,0.121
1680726326096678608,0.097
1680726326104374648,0.10400000000000001
1680726326112070688,0.061
1680726326119766728,-0.044
1680726326127462768,-0.099
1680726326135158808,-0.099
1680726326142854848,-0.125
1680726326150550888,-0.14400000000000002
1680726326158246928,-0.093
1680726326165942968,-0.008
1680726326173639008,-0.012
1680726326181335048,-0.084
1680726326189031088,-0.11
1680726326196727128,-0.106
1680726326204423168,-0.14
1680726326212119208,-0.201
1680726326219815248,-0.23700000000000002
1680726326227511288,-0.089
1680726326235207328,0.34800000000000003
1680726326242903368,0.79
1680726326250599408,0.656
1680726326258295448,-0.195
1680726326265991488,-0.8190000000000001
1680726326273687528,-0.5690000000000001
1680726326281383568,-0.225,,700
1680726326289079608,-0.278
1680726326296775648,-0.324
1680726326304471688,-0.297
1680726326312167728,-0.329
1680726326319863768,-0.333
1680726326327559808,-0.29
1680726326335255848,-0.271
1680726326342951888,-0.29
1680726326350647928,-0.301
1680726326358343968,-0.242
1680726326366040008,-0.169
1680726326373736048,-0.165
1680726326381432088,-0.18
1680726326389128128,-0.17400000000000002
1680726326396824168,-0.167
1680726326404520208,-0.155
1680726326412216248,-0.14400000000000002
1680726326419912288,-0.135
1680726326427608328,-0.08
1680726326435304368,-0.014
1680726326443000408,0.01
1680726326450696448,0.031
1680726326458392488,0.059000000000000004
1680726326466088528,0.07200000000000001
1680726326473784568,0.074
1680726326481480608,0.074
1680726326489176648,0.084
1680726326496872688,0.08700000000000001
1680726326504568728,0.078
1680726326512264768,0.114
1680726326519960808,0.152
1680726326527656848,0.129
1680726326535352888,0.11
1680726326543048928,0.14200000000000002
1680726326550744968,0.146
1680726326558441008,0.116
1680726326566137048,0.112
1680726326573833088,0.11
1680726326581529128,0.099
1680726326589225168,0.099
1680726326596921208,0.095
1680726326604617248,0.101
1680726326612313288,0.108
1680726326620009328,0.063
1680726326627705368,-0.006
1680726326635401408,-0.025
1680726326643097476,0.021,80
1680726326650793098,0.063
1680726326658488720,0.093
1680726326666184342,0.108
1680726326673879964,0.027
1680726326681575586,-0.061
1680726326689271208,-0.021
1680726326696966830,0.029
1680726326704662452,0.025
1680726326712358074,0.002
1680726326720053696,-0.033
1680726326727749318,-0.07
1680726326735444940,-0.108
1680726326743140562,-0.159
1680726326750836184,-0.133
1680726326758531806,-0.029
1680726326766227428,-0.006
1680726326773923050,-0.055
1680726326781618672,-0.042
1680726326789314294,0.0
1680726326797009916,-0.025
1680726326804705538,-0.08
1680726326812401160,-0.095
1680726326820096782,-0.091
1680726326827792404,-0.084
1680726326835488026,-0.074
1680726326843183648,-0.063
1680726326850879270,0.061
1680726326858574892,0.49
1680726326866270514,0.998
1680726326873966136,0.9530000000000001
1680726326881661758,0.14
1680726326889357380,-0.626
1680726326897053002,-0.522
1680726326904748624,-0.152
1680726326912444246,-0.18
1680726326920139868,-0.242
1680726326927835490,-0.165
1680726326935531112,-0.152
1680726326943226734,-0.17400000000000002
1680726326950922356,-0.15
1680726326958617978,-0.129,,683
1680726326966313600,-0.11
1680726326974009222,-0.076
1680726326981704844,-0.093
1680726326989400466,-0.131
1680726326997096088,-0.084
1680726327004791710,-0.033
1680726327012487332,-0.044
1680726327020182954,-0.002
1680726327027878576,0.078
1680726327035574198,0.078
1680726327043269820,0.044
1680726327050965442,0.05
1680726327058661064,0.074
1680726327066356686,0.091
1680726327074052308,0.095
1680726327081747930,0.097
1680726327089443552,0.114
1680726327097139174,0.125
1680726327104834796,0.121
1680726327112530418,0.135
1680726327120226040,0.155
1680726327127921662,0.14400000000000002
1680726327135617284,0.131
1680726327143312906,0.148
1680726327151008528,0.17200000000000001
1680726327158704150,0.182
1680726327166399772,0.182
1680726327174095394,0.182
1680726327181791016,0.191
1680726327189486638,0.197
1680726327197182260,0.193
1680726327204877908,0.203
1680726327212573948,0.223
1680726327220269988,0.203
1680726327227966028,0.138
1680726327235662068,0.07
1680726327243358108,0.046
1680726327251054148,0.044
1680726327258750188,0.038
1680726327266446228,0.042
1680726327274142268,0.059000000000000004
1680726327281838308,0.067
1680726327289534348,0.057
1680726327297230388,0.036000000000000004
1680726327304926428,0.014
1680726327312622468,-0.031
1680726327320318508,-0.07200000000000001
1680726327328014548,-0.05
1680726327335710588,-0.021
1680726327343406628,-0.027
1680726327351102668,-0.021
1680726327358798708,0.004
1680726327366494748,0.027
1680726327374190788,0.055
1680726327381886828,0.067
1680726327389582868,0.053
1680726327397278908,0.046
1680726327404974948,0.053
1680726327412670988,0.059000000000000004
1680726327420367028,0.08
1680726327428063068,0.099
1680726327435759108,0.106
1680726327443455148,0.11
1680726327451151188,0.101
1680726327458847228,0.129
1680726327466543268,0.367
1680726327474239308,0.851
1680726327481935348,1.238
1680726327489631388,0.983
1680726327497327428,0.08
1680726327505023468,-0.467
1680726327512719508,-0.163
1680726327520415548,0.099
1680726327528111588,-0.046
1680726327535807628,-0.116
1680726327543503668,-0.106
1680726327551199708,-0.163
1680726327558895748,-0.178
1680726327566591788,-0.138
1680726327574287828,-0.129
1680726327581983868,-0.14400000000000002
1680726327589679908,-0.14400000000000002
1680726327597375948,-0.127
1680726327605071988,-0.11
1680726327612768028,-0.101
1680726327620464068,-0.084
1680726327628160108,-0.059000000000000004
1680726327635856148,-0.057,,674
1680726327643552188,-0.063
1680726327651248228,-0.038
1680726327658944268,-0.002
1680726327666640308,0.016
1680726327674336348,0.021
1680726327682032388,0.029
1680726327689728428,0.053
1680726327697424468,0.067
1680726327705120508,0.07200000000000001
1680726327712816548,0.082
1680726327720512588,0.097
1680726327728208628,0.08700000000000001
1680726327735904668,0.036000000000000004
1680726327743600708,-0.008
1680726327751296748,0.002
1680726327758992788,0.01
1680726327766688856,-0.006,81
1680726327774384478,-0.012
1680726327782080100,-0.021
1680726327789775722,-0.044
1680726327797471344,-0.044
1680726327805166966,-0.019
1680726327812862588,-0.019
1680726327820558210,-0.074
1680726327828253832,-0.129
1680726327835949454,-0.123
1680726327843645076,-0.10400000000000001
1680726327851340698,-0.112
1680726327859036320,-0.112
1680726327866731942,-0.097
1680726327874427564,-0.089
1680726327882123186,-0.082
1680726327889818808,-0.061
1680726327897514430,-0.036000000000000004
1680726327905210052,-0.016
1680726327912905674,-0.021
1680726327920601296,-0.019
1680726327928296918,0.01
1680726327935992540,0.033
1680726327943688162,0.036000000000000004
1680726327951383784,0.044
1680726327959079406,0.07
1680726327966775028,0.097
1680726327974470650,0.114
1680726327982166272,0.14400000000000002
1680726327989861894,0.17400000000000002
1680726327997557516,0.155
1680726328005253138,0.106
1680726328012948760,0.108
1680726328020644382,0.14
1680726328028340004,0.131
1680726328036035626,0.10400000000000001
1680726328043731248,0.114
1680726328051426870,0.125
1680726328059122492,0.106
1680726328066818114,0.091
1680726328074513736,0.20800000000000002
1680726328082209358,0.592
1680726328089904980,1.121
1680726328097600602,1.304
1680726328105296224,0.72
1680726328112991846,-0.148
1680726328120687468,-0.28
1680726328128383090,0.11800000000000001
1680726328136078712,0.182
1680726328143774334,0.042
1680726328151469956,0.07
1680726328159165578,0.108
1680726328166861200,0.084
1680726328174556822,0.089
1680726328182252444,0.08700000000000001
1680726328189948066,0.046
1680726328197643688,0.023
1680726328205339310,0.008
1680726328213034932,-0.012
1680726328220730554,-0.014
1680726328228426176,-0.002
1680726328236121798,-0.021
1680726328243817420,-0.08
1680726328251513042,-0.116
1680726328259208664,-0.095
1680726328266904286,-0.076
1680726328274599908,-0.099
1680726328282295530,-0.129
1680726328289991152,-0.123
1680726328297686774,-0.10400000000000001,,659
1680726328305382396,-0.108
1680726328313078018,-0.101
1680726328320773640,-0.078
1680726328328469286,-0.084
1680726328336165326,-0.10400000000000001
1680726328343861366,-0.089
1680726328351557406,-0.063
1680726328359253446,-0.061
1680726328366949486,-0.067
1680726328374645526,-0.063
1680726328382341566,-0.059000000000000004
1680726328390037606,-0.076
1680726328397733646,-0.101
1680726328405429686,-0.082
1680726328413125726,-0.053
1680726328420821766,-0.067
1680726328428517806,-0.082
1680726328436213846,-0.059000000000000004
1680726328443909886,-0.044
1680726328451605926,-0.05
1680726328459301966,-0.05
1680726328466998006,-0.042
1680726328474694046,-0.033
1680726328482390086,-0.025
1680726328490086126,-0.01
1680726328497782166,0.012
1680726328505478206,0.029
1680726328513174246,0.019
1680726328520870286,-0.006
1680726328528566326,-0.021
1680726328536262366,-0.014
1680726328543958406,-0.004
1680726328551654446,0.004
1680726328559350486,0.002
1680726328567046526,0.0
1680726328574742566,0.016
1680726328582438606,0.053
1680726328590134646,0.095
1680726328597830686,0.121
1680726328605526726,0.123
1680726328613222766,0.11
1680726328620918806,0.093
1680726328628614846,0.084
1680726328636310886,0.095
1680726328644006926,0.123
1680726328651702966,0.14400000000000002
1680726328659399006,0.14200000000000002
1680726328667095046,0.138
1680726328674791086,0.15
1680726328682487126,0.15
1680726328690183166,0.184
1680726328697879206,0.45
1680726328705575246,0.981
1680726328713271286,1.363
1680726328720967326,1.008
1680726328728663366,0.089
1680726328736359406,-0.31
1680726328744055446,0.006
1680726328751751486,0.14
1680726328759447526,-0.006
1680726328767143566,-0.025
1680726328774839606,-0.023
1680726328782535646,-0.084
1680726328790231686,-0.089
1680726328797927726,-0.05
1680726328805623766,-0.042
1680726328813319806,-0.07
1680726328821015846,-0.08
1680726328828711886,-0.084
1680726328836407926,-0.121
1680726328844103966,-0.148
1680726328851800006,-0.131
1680726328859496046,-0.108
1680726328867192086,-0.10400000000000001
1680726328874888126,-0.106
1680726328882584166,-0.099
1680726328890280234,-0.084,84
1680726328897975856,-0.074
1680726328905671478,-0.063
1680726328913367100,-0.04
1680726328921062722,-0.031
1680726328928758344,-0.07200000000000001,,634
1680726328936453966,-0.127
1680726328944149588,-0.127
1680726328951845210,-0.099
1680726328959540832,-0.099
1680726328967236454,-0.11
1680726328974932076,-0.108
1680726328982627698,-0.093
1680726328990323320,-0.082
1680726328998018942,-0.07
1680726329005714564,-0.048
1680726329013410186,-0.05
1680726329021105808,-0.082
1680726329028801430,-0.084
1680726329036497052,-0.05
1680726329044192674,-0.038
1680726329051888296,-0.048
1680726329059583918,-0.048
1680726329067279540,-0.044
1680726329074975162,-0.042
1680726329082670784,-0.042
1680726329090366406,-0.027
1680726329098062028,-0.002
1680726329105757650,0.012
1680726329113453272,0.006
1680726329121148894,0.01
1680726329128844516,0.04
1680726329136540138,0.059000000000000004
1680726329144235760,0.065
1680726329151931382,0.074
1680726329159627004,0.084
1680726329167322626,0.089
1680726329175018248,0.093
1680726329182713870,0.108
1680726329190409492,0.133
1680726329198105114,0.14200000000000002
1680726329205800736,0.14
1680726329213496358,0.165
1680726329221191980,0.20600000000000002
1680726329228887602,0.229
1680726329236583224,0.231
1680726329244278846,0.199
1680726329251974468,0.114
1680726329259670090,0.025
1680726329267365712,-0.004
1680726329275061334,0.008
1680726329282756956,0.019
1680726329290452578,0.014
1680726329298148200,0.006
1680726329305843822,-0.002
1680726329313539444,0.008
1680726329321235066,0.152
1680726329328930688,0.586
1680726329336626310,1.115
1680726329344321932,1.1380000000000001
1680726329352017554,0.363
1680726329359713176,-0.401
1680726329367408798,-0.28200000000000003
1680726329375104420,0.127
1680726329382800042,0.11
1680726329390495664,0.016
1680726329398191286,0.07200000000000001
1680726329405886908,0.07200000000000001
1680726329413582530,0.033
1680726329421278152,0.061
1680726329428973774,0.089
1680726329436669396,0.067
1680726329444365018,0.036000000000000004
1680726329452060664,0.027
1680726329459756286,0.029
1680726329467451908,0.004
1680726329475147530,-0.029
1680726329482843152,-0.038
1680726329490538774,-0.029
1680726329498234396,-0.023
1680726329505930018,-0.038
1680726329513625640,-0.082
1680726329521321262,-0.108
1680726329529016884,-0.095
1680726329536712506,-0.11
1680726329544408128,-0.131
1680726329552103750,-0.112
1680726329559799372,-0.101,,631
1680726329567494994,-0.114
1680726329575190616,-0.114
1680726329582886238,-0.106
1680726329590581860,-0.10400000000000001
1680726329598277482,-0.093
1680726329605973104,-0.065
1680726329613668726,-0.053
1680726329621364348,-0.063
1680726329629059970,-0.057
1680726329636755592,-0.025
1680726329644451214,0.006
1680726329652146836,0.029
1680726329659842458,0.048
1680726329667538080,0.055
1680726329675233702,0.057
1680726329682929324,0.057
1680726329690624946,0.061
1680726329698320568,0.074
1680726329706016190,0.078
1680726329713711812,0.061
1680726329721407434,0.057
1680726329729103056,0.076
1680726329736798678,0.093
1680726329744494300,0.099
1680726329752189922,0.065
1680726329759885544,-0.023
1680726329767581166,-0.095
1680726329775276788,-0.099
1680726329782972410,-0.08
1680726329790668032,-0.07200000000000001
1680726329798363654,-0.078
1680726329806059276,-0.095
1680726329813754898,-0.067
1680726329821450520,-0.025
1680726329829146142,-0.021
1680726329836841764,-0.016
1680726329844537386,0.016
1680726329852233008,0.044
1680726329859928630,0.055
1680726329867624252,0.07200000000000001
1680726329875319874,0.10400000000000001
1680726329883015496,0.112
1680726329890711118,0.082
1680726329898406740,0.053
1680726329906102362,0.067
1680726329913797984,0.116
1680726329921493606,0.131
1680726329929189228,0.127
1680726329936884850,0.146
1680726329944580472,0.148
1680726329952276094,0.125
1680726329959971716,0.231
1680726329967667338,0.628
1680726329975362960,1.161
1680726329983058582,1.293
1680726329990754204,0.62
1680726329998449826,-0.263
1680726330006145448,-0.339
1680726330013841094,0.061,86
1680726330021537134,0.14
1680726330029233174,0.07
1680726330036929214,0.07
1680726330044625254,0.014
1680726330052321294,-0.031
1680726330060017334,0.006
1680726330067713374,0.019
1680726330075409414,-0.016
1680726330083105454,-0.04
1680726330090801494,-0.044
1680726330098497534,-0.057
1680726330106193574,-0.082
1680726330113889614,-0.078
1680726330121585654,-0.063
1680726330129281694,-0.082
1680726330136977734,-0.091
1680726330144673774,-0.055
1680726330152369814,-0.031
1680726330160065854,-0.033
1680726330167761894,-0.029
1680726330175457934,-0.021
1680726330183153974,-0.014
1680726330190850014,-0.006
1680726330198546054,0.0,,637
1680726330206242094,0.014
1680726330213938134,0.025
1680726330221634174,0.012
1680726330229330214,0.006
1680726330237026254,0.016
1680726330244722294,0.002
1680726330252418334,-0.046
1680726330260114374,-0.084
1680726330267810414,-0.123
1680726330275506454,-0.152
1680726330283202494,-0.138
1680726330290898534,-0.106
1680726330298594574,-0.08
1680726330306290614,-0.074
1680726330313986654,-0.08700000000000001
1680726330321682694,-0.091
1680726330329378734,-0.07200000000000001
1680726330337074774,-0.059000000000000004
1680726330344770814,-0.063
1680726330352466854,-0.063
1680726330360162894,-0.053
1680726330367858934,-0.046
1680726330375554974,-0.038
1680726330383251014,-0.014
1680726330390947054,0.012
1680726330398643094,0.016
1680726330406339134,0.008
1680726330414035174,0.021
1680726330421731214,0.046
1680726330429427254,0.055
1680726330437123294,0.059000000000000004
1680726330444819334,0.078
1680726330452515374,0.093
1680726330460211414,0.091
1680726330467907454,0.099
1680726330475603494,0.125
1680726330483299534,0.138
1680726330490995574,0.125
1680726330498691614,0.114
1680726330506387654,0.133
1680726330514083694,0.169
1680726330521779734,0.186
1680726330529475774,0.176
1680726330537171814,0.155
1680726330544867854,0.14200000000000002
1680726330552563894,0.14400000000000002
1680726330560259934,0.155
1680726330567955974,0.176
1680726330575652044,0.195
1680726330583347666,0.193
1680726330591043288,0.176
1680726330598738910,0.169
1680726330606434532,0.263
1680726330614130154,0.62
1680726330621825776,1.166
1680726330629521398,1.4060000000000001
1680726330637217020,0.8150000000000001
1680726330644912642,-0.161
1680726330652608264,-0.367
1680726330660303886,0.048
1680726330667999508,0.127
1680726330675695130,-0.016
1680726330683390752,0.014
1680726330691086374,0.057
1680726330698781996,0.012
1680726330706477618,-0.01
1680726330714173240,-0.002
1680726330721868862,-0.014
1680726330729564484,-0.048
1680726330737260106,-0.08700000000000001
1680726330744955728,-0.108
1680726330752651350,-0.099
1680726330760346972,-0.08700000000000001
1680726330768042594,-0.123
1680726330775738216,-0.182
1680726330783433838,-0.191
1680726330791129460,-0.17200000000000001
1680726330798825082,-0.165
1680726330806520704,-0.15
1680726330814216326,-0.129
1680726330821911948,-0.133,,624
1680726330829607570,-0.131
1680726330837303192,-0.10400000000000001
1680726330844998814,-0.08700000000000001
1680726330852694436,-0.084
1680726330860390058,-0.076
1680726330868085680,-0.07
1680726330875781302,-0.07
1680726330883476924,-0.065
1680726330891172546,-0.048
1680726330898868168,-0.027
1680726330906563790,-0.014
1680726330914259412,-0.019
1680726330921955034,-0.008
1680726330929650656,0.031
1680726330937346278,0.063
1680726330945041900,0.078
1680726330952737522,0.091
1680726330960433144,0.097
1680726330968128766,0.091
1680726330975824388,0.08
1680726330983520010,0.057
1680726330991215632,0.027
1680726330998911254,0.01
1680726331006606876,0.002
1680726331014302498,0.004
1680726331021998120,0.021
1680726331029693742,0.033
1680726331037389364,0.04
1680726331045084986,0.05
1680726331052780608,0.059000000000000004
1680726331060476230,0.057
1680726331068171852,0.063
1680726331075867474,0.084
1680726331083563096,0.106
1680726331091258718,0.106
1680726331098954340,0.097
1680726331106649962,0.108
1680726331114345584,0.129
1680726331122041206,0.14200000000000002
1680726331129736828,0.14400000000000002
1680726331137432474,0.157,89
1680726331145128514,0.167
1680726331152824554,0.159
1680726331160520594,0.161
1680726331168216634,0.195
1680726331175912674,0.23500000000000001
1680726331183608714,0.25
1680726331191304754,0.252
1680726331199000794,0.252
1680726331206696834,0.214
1680726331214392874,0.146
1680726331222088914,0.11800000000000001
1680726331229784954,0.11
1680726331237480994,0.055
1680726331245177034,0.008
1680726331252873074,0.025
1680726331260569114,0.042
1680726331268265154,-0.016
1680726331275961194,-0.059000000000000004
1680726331283657234,0.178
1680726331291353274,0.726
1680726331299049314,1.093
1680726331306745354,0.6960000000000001
1680726331314441394,-0.246
1680726331322137434,-0.669
1680726331329833474,-0.35000000000000003
1680726331337529514,-0.167
1680726331345225554,-0.29
1680726331352921594,-0.28800000000000003
1680726331360617634,-0.227
1680726331368313674,-0.257
1680726331376009714,-0.265
1680726331383705754,-0.229
1680726331391401794,-0.218
1680726331399097834,-0.214
1680726331406793874,-0.18
1680726331414489914,-0.155
1680726331422185954,-0.161
1680726331429881994,-0.155
1680726331437578034,-0.11800000000000001,,613
1680726331445274074,-0.091
1680726331452970114,-0.08
1680726331460666154,-0.065
1680726331468362194,-0.055
1680726331476058234,-0.07
1680726331483754274,-0.097
1680726331491450314,-0.08700000000000001
1680726331499146354,-0.053
1680726331506842394,-0.044
1680726331514538434,-0.055
1680726331522234474,-0.046
1680726331529930514,-0.021
1680726331537626554,-0.01
1680726331545322594,-0.01
1680726331553018634,0.002
1680726331560714674,0.01
1680726331568410714,0.008
1680726331576106754,0.016
1680726331583802794,0.04
1680726331591498834,0.07200000000000001
1680726331599194874,0.091
1680726331606890914,0.091
1680726331614586954,0.11
1680726331622282994,0.14400000000000002
1680726331629979034,0.155
1680726331637675074,0.148
1680726331645371114,0.15
1680726331653067154,0.15
1680726331660763194,0.138
1680726331668459234,0.135
1680726331676155274,0.15
1680726331683851314,0.165
1680726331691547354,0.163
1680726331699243422,0.152,90
1680726331706939044,0.159
1680726331714634666,0.178
1680726331722330288,0.169
1680726331730025910,0.14400000000000002
1680726331737721532,0.14200000000000002
1680726331745417154,0.129
1680726331753112776,0.074
1680726331760808398,0.036000000000000004
1680726331768504020,0.014
1680726331776199642,-0.042
1680726331783895264,-0.091
1680726331791590886,-0.08700000000000001
1680726331799286508,-0.074
1680726331806982130,-0.07
1680726331814677752,-0.061
1680726331822373374,-0.044
1680726331830068996,-0.023
1680726331837764618,-0.021
1680726331845460240,-0.023
1680726331853155862,-0.002
1680726331860851484,0.021
1680726331868547106,0.033
1680726331876242728,0.05
1680726331883938350,0.055
1680726331891633972,0.053
1680726331899329594,0.057
1680726331907025216,0.042
1680726331914720838,0.012
1680726331922416460,0.006
1680726331930112082,-0.012
1680726331937807704,-0.048
1680726331945503326,-0.061
1680726331953198948,-0.065
1680726331960894570,-0.08700000000000001
1680726331968590192,-0.129
1680726331976285814,-0.17400000000000002
1680726331983981436,-0.042
1680726331991677058,0.403
1680726331999372680,0.902
1680726332007068302,0.892
1680726332014763924,0.127
1680726332022459546,-0.626
1680726332030155168,-0.52
1680726332037850790,-0.114
1680726332045546412,-0.112,,612
1680726332053242034,-0.189
1680726332060937656,-0.11800000000000001
1680726332068633278,-0.093
1680726332076328900,-0.112
1680726332084024522,-0.082
1680726332091720144,-0.048
1680726332099415766,-0.029
1680726332107111388,-0.012
1680726332114807010,-0.008
1680726332122502632,0.002
1680726332130198254,0.033
1680726332137893876,0.059000000000000004
1680726332145589498,0.067
1680726332153285120,0.084
1680726332160980742,0.10400000000000001
1680726332168676364,0.112
1680726332176371986,0.123
1680726332184067608,0.148
1680726332191763230,0.17400000000000002
1680726332199458852,0.182
1680726332207154474,0.167
1680726332214850096,0.14200000000000002
1680726332222545718,0.11800000000000001
1680726332230241340,0.11
1680726332237936962,0.11
1680726332245632584,0.106
1680726332253328206,0.099
1680726332261023852,0.089
1680726332268719892,0.061
1680726332276415932,0.01
1680726332284111972,-0.023
1680726332291808012,-0.025
1680726332299504052,-0.033
1680726332307200092,-0.027
1680726332314896132,0.0
1680726332322592172,-0.014
1680726332330288212,-0.042
1680726332337984252,-0.031
1680726332345680292,-0.031
1680726332353376332,-0.057
1680726332361072372,-0.053
1680726332368768412,-0.025
1680726332376464452,-0.021
1680726332384160492,-0.029
1680726332391856532,-0.027
1680726332399552572,-0.01
1680726332407248612,0.004
1680726332414944652,0.014
1680726332422640692,0.033
1680726332430336732,0.053
1680726332438032772,0.053
1680726332445728812,0.048
1680726332453424852,0.059000000000000004
1680726332461120892,0.059000000000000004
1680726332468816932,0.027
1680726332476512972,0.012
1680726332484209012,0.025
1680726332491905052,0.033
1680726332499601092,0.023
1680726332507297132,0.004
1680726332514993172,0.004
1680726332522689212,0.019
1680726332530385252,0.008
1680726332538081292,-0.004
1680726332545777332,-0.002
1680726332553473372,-0.016
1680726332561169412,-0.042
1680726332568865452,-0.07
1680726332576561492,-0.099
1680726332584257532,-0.11
1680726332591953572,-0.108
1680726332599649612,-0.11
1680726332607345652,-0.101
1680726332615041692,-0.084
1680726332622737732,-0.074
1680726332630433772,-0.059000000000000004
1680726332638129812,-0.023
1680726332645825852,-0.012
1680726332653521892,-0.05
1680726332661217932,-0.076,,618
1680726332668913972,-0.057
1680726332676610012,-0.048
1680726332684306052,-0.055
1680726332692002092,-0.036000000000000004
1680726332699698132,-0.012
1680726332707394172,-0.033
1680726332715090212,-0.082
1680726332722786252,-0.006
1680726332730482292,0.356
1680726332738178332,0.883
1680726332745874372,1.095
1680726332753570412,0.5640000000000001
1680726332761266452,-0.295
1680726332768962492,-0.47700000000000004
1680726332776658532,-0.114
1680726332784354572,-0.029
1680726332792050612,-0.127
1680726332799746652,-0.08700000000000001
1680726332807442692,-0.059000000000000004
1680726332815138732,-0.076
1680726332822834800,-0.038,91
1680726332830530840,-0.002
1680726332838226880,0.0
1680726332845922920,0.021
1680726332853618960,0.033
1680726332861315000,-0.002
1680726332869011040,-0.029
1680726332876707080,-0.006
1680726332884403120,0.021
1680726332892099160,0.021
1680726332899795200,0.023
1680726332907491240,0.046
1680726332915187280,0.074
1680726332922883320,0.08700000000000001
1680726332930579360,0.10400000000000001
1680726332938275400,0.129
1680726332945971440,0.14
1680726332953667480,0.121
1680726332961363520,0.106
1680726332969059560,0.116
1680726332976755600,0.133
1680726332984451640,0.125
1680726332992147680,0.116
1680726332999843720,0.129
1680726333007539760,0.14200000000000002
1680726333015235800,0.14400000000000002
1680726333022931840,0.157
1680726333030627880,0.178
1680726333038323920,0.176
1680726333046019960,0.176
1680726333053716000,0.20800000000000002
1680726333061412040,0.246
1680726333069108080,0.263
1680726333076804120,0.259
1680726333084500160,0.254
1680726333092196200,0.25
1680726333099892240,0.242
1680726333107588280,0.23500000000000001
1680726333115284320,0.242
1680726333122980360,0.244
1680726333130676400,0.21
1680726333138372440,0.17400000000000002
1680726333146068480,0.178
1680726333153764520,0.191
1680726333161460560,0.18
1680726333169156600,0.163
1680726333176852640,0.133
1680726333184548680,0.10400000000000001
1680726333192244720,0.067
1680726333199940760,0.004
1680726333207636800,-0.05
1680726333215332840,-0.065
1680726333223028880,-0.08700000000000001
1680726333230724920,-0.108
1680726333238420960,-0.097
1680726333246117000,-0.095
1680726333253813040,-0.11
1680726333261509080,-0.112
1680726333269205120,-0.108
1680726333276901160,-0.14200000000000002
1680726333284597200,-0.191
1680726333292293240,-0.197,,626
1680726333299989280,-0.169
1680726333307685320,-0.167
1680726333315381360,-0.184
1680726333323077400,-0.176
1680726333330773440,-0.14400000000000002
1680726333338469480,-0.127
1680726333346165520,-0.123
1680726333353861560,-0.106
1680726333361557600,-0.089
1680726333369253640,-0.084
1680726333376949680,-0.074
1680726333384645748,-0.048
1680726333392341788,-0.023
1680726333400037828,-0.016
1680726333407733868,-0.025
1680726333415429908,-0.016
1680726333423125948,0.01
1680726333430821988,0.01
1680726333438518028,-0.012
1680726333446214068,-0.023
1680726333453910108,-0.042
1680726333461606148,-0.089
1680726333469302188,-0.114
1680726333476998228,-0.091
1680726333484694268,-0.063
1680726333492390308,-0.067
1680726333500086348,-0.067
1680726333507782388,-0.04
1680726333515478428,-0.019
1680726333523174468,-0.025
1680726333530870508,0.038
1680726333538566548,0.352
1680726333546262588,0.858
1680726333553958628,1.1340000000000001
1680726333561654668,0.722
1680726333569350708,-0.121
1680726333577046748,-0.405
1680726333584742788,-0.038
1680726333592438828,0.14200000000000002
1680726333600134868,0.057
1680726333607830908,0.08
1680726333615526948,0.138
1680726333623222988,0.129
1680726333630919028,0.148
1680726333638615068,0.176
1680726333646311108,0.169
1680726333654007148,0.182
1680726333661703188,0.22
1680726333669399228,0.23500000000000001
1680726333677095268,0.233
1680726333684791308,0.23700000000000002
1680726333692487348,0.227
1680726333700183388,0.195
1680726333707879428,0.186
1680726333715575468,0.212
1680726333723271508,0.227
1680726333730967548,0.22
1680726333738663588,0.216
1680726333746359628,0.23700000000000002
1680726333754055668,0.261
1680726333761751708,0.259
1680726333769447748,0.227
1680726333777143788,0.165
1680726333784839828,0.089
1680726333792535868,0.042
1680726333800231908,0.04
1680726333807927948,0.042
1680726333815623988,0.01
1680726333823320028,-0.033
1680726333831016068,-0.063
1680726333838712108,-0.08
1680726333846408148,-0.093
1680726333854104188,-0.093
1680726333861800228,-0.08700000000000001
1680726333869496268,-0.074
1680726333877192308,-0.063
1680726333884888348,-0.061
1680726333892584388,-0.059000000000000004
1680726333900280428,-0.053
1680726333907976468,-0.061
1680726333915672508,-0.089
1680726333923368548,-0.097
1680726333931064588,-0.08700000000000001,,640
1680726333938760628,-0.099
1680726333946456698,-0.127,91
1680726333954152320,-0.123
1680726333961847942,-0.11
1680726333969543564,-0.114
1680726333977239186,-0.108
1680726333984934808,-0.084
1680726333992630430,-0.065
1680726334000326052,-0.063
1680726334008021674,-0.074
1680726334015717296,-0.063
1680726334023412918,-0.048
1680726334031108540,-0.074
1680726334038804162,-0.11
1680726334046499784,-0.099
1680726334054195406,-0.084
1680726334061891028,-0.097
1680726334069586650,-0.08700000000000001
1680726334077282272,-0.055
1680726334084977894,-0.031
1680726334092673516,-0.025
1680726334100369138,-0.023
1680726334108064760,-0.006
1680726334115760382,0.016
1680726334123456004,0.029
1680726334131151626,0.044
1680726334138847248,0.067
1680726334146542870,0.074
1680726334154238492,0.07
1680726334161934114,0.084
1680726334169629736,0.112
1680726334177325358,0.131
1680726334185020980,0.125
1680726334192716602,0.099
1680726334200412224,0.095
1680726334208107846,0.112
1680726334215803468,0.11800000000000001
1680726334223499090,0.129
1680726334231194712,0.148
1680726334238890334,0.146
1680726334246585956,0.129
1680726334254281578,0.14200000000000002
1680726334261977200,0.165
1680726334269672822,0.18
1680726334277368444,0.18
1680726334285064066,0.14400000000000002
1680726334292759688,0.108
1680726334300455310,0.106
1680726334308150932,0.084
1680726334315846554,0.053
1680726334323542176,0.065
1680726334331237798,0.07200000000000001
1680726334338933420,0.059000000000000004
1680726334346629042,0.08
1680726334354324664,0.112
1680726334362020286,0.11
1680726334369715908,0.095
1680726334377411530,0.18
1680726334385107152,0.516
1680726334392802774,1.0110000000000001
1680726334400498396,1.217
1680726334408194018,0.7030000000000001
1680726334415889640,-0.163
1680726334423585262,-0.384
1680726334431280884,-0.023
1680726334438976506,0.074
1680726334446672128,-0.04
1680726334454367750,-0.021
1680726334462063372,-0.006
1680726334469758994,-0.063
1680726334477454616,-0.08
1680726334485150238,-0.084
1680726334492845860,-0.101
1680726334500541482,-0.091
1680726334508237128,-0.082
1680726334515933168,-0.101
1680726334523629208,-0.097
1680726334531325248,-0.07200000000000001
1680726334539021288,-0.059000000000000004
1680726334546717328,-0.057
1680726334554413368,-0.044
1680726334562109408,-0.04
1680726334569805448,-0.067
1680726334577501488,-0.10400000000000001,,647
1680726334585197528,-0.095
1680726334592893568,-0.065
1680726334600589608,-0.067
1680726334608285648,-0.08
1680726334615981688,-0.065
1680726334623677728,-0.042
1680726334631373768,-0.038
1680726334639069808,-0.033
1680726334646765848,-0.014
1680726334654461888,-0.01
1680726334662157928,-0.016
1680726334669853968,-0.012
1680726334677550008,-0.016
1680726334685246048,-0.042
1680726334692942088,-0.053
1680726334700638128,-0.044
1680726334708334168,-0.023
1680726334716030208,0.008
1680726334723726248,0.029
1680726334731422288,0.044
1680726334739118328,0.059000000000000004
1680726334746814368,0.055
1680726334754510408,0.038
1680726334762206448,0.04
1680726334769902488,0.065
1680726334777598528,0.07
1680726334785294568,0.023
1680726334792990608,-0.031
1680726334800686648,-0.031
1680726334808382688,-0.01
1680726334816078728,-0.012
1680726334823774768,0.002
1680726334831470808,0.027
1680726334839166848,0.021
1680726334846862888,0.014
1680726334854558928,0.038
1680726334862254968,0.063
1680726334869951008,0.07200000000000001
1680726334877647048,0.074
1680726334885343088,0.082
1680726334893039128,0.095
1680726334900735168,0.10400000000000001
1680726334908431208,0.114
1680726334916127248,0.131
1680726334923823288,0.121
1680726334931519328,0.07200000000000001
1680726334939215368,0.055
1680726334946911408,0.084
1680726334954607448,0.10400000000000001
1680726334962303488,0.10400000000000001
1680726334969999528,0.11
1680726334977695568,0.121
1680726334985391608,0.127
1680726334993087648,0.135
1680726335000783688,0.146
1680726335008479728,0.167
1680726335016175768,0.184
1680726335023871808,0.178
1680726335031567848,0.178
1680726335039263888,0.203
1680726335046959928,0.22
1680726335054655968,0.22
1680726335062352008,0.229
1680726335070048076,0.23700000000000002,90
1680726335077743698,0.233
1680726335085439320,0.216
1680726335093134942,0.197
1680726335100830564,0.193
1680726335108526186,0.193
1680726335116221808,0.169
1680726335123917430,0.15
1680726335131613052,0.14
1680726335139308674,0.082
1680726335147004296,0.006
1680726335154699918,-0.023
1680726335162395540,-0.033
1680726335170091162,-0.061
1680726335177786784,-0.08
1680726335185482406,-0.08700000000000001
1680726335193178028,-0.11800000000000001
1680726335200873650,-0.155
1680726335208569272,-0.163
1680726335216264894,-0.152
1680726335223960516,-0.14200000000000002
1680726335231656138,-0.138
1680726335239351760,-0.133
1680726335247047382,-0.135,,672
1680726335254743004,-0.131
1680726335262438626,0.031
1680726335270134248,0.47700000000000004
1680726335277829870,0.9380000000000001
1680726335285525492,0.836
1680726335293221114,0.0
1680726335300916736,-0.6900000000000001
1680726335308612358,-0.482
1680726335316307980,-0.11
1680726335324003602,-0.17400000000000002
1680726335331699224,-0.225
1680726335339394846,-0.125
1680726335347090468,-0.11800000000000001
1680726335354786090,-0.14400000000000002
1680726335362481712,-0.095
1680726335370177334,-0.05
1680726335377872956,-0.042
1680726335385568578,-0.031
1680726335393264200,-0.014
1680726335400959822,0.008
1680726335408655444,0.038
1680726335416351066,0.044
1680726335424046688,0.036000000000000004
1680726335431742310,0.044
1680726335439437932,0.055
1680726335447133554,0.059000000000000004
1680726335454829176,0.082
1680726335462524798,0.116
1680726335470220420,0.131
1680726335477916042,0.138
1680726335485611664,0.148
1680726335493307286,0.163
1680726335501002908,0.169
1680726335508698530,0.178
1680726335516394152,0.199
1680726335524089774,0.21
1680726335531785396,0.199
1680726335539481018,0.195
1680726335547176640,0.216
1680726335554872262,0.233
1680726335562567884,0.231
1680726335570263506,0.233
1680726335577959128,0.242
1680726335585654750,0.248
1680726335593350372,0.261
1680726335601045994,0.28200000000000003
1680726335608741616,0.307
1680726335616437238,0.316
1680726335624132860,0.295
1680726335631828506,0.276
1680726335639524546,0.28600000000000003
1680726335647220586,0.28800000000000003
1680726335654916626,0.269
1680726335662612666,0.23500000000000001
1680726335670308706,0.189
1680726335678004746,0.14
1680726335685700786,0.097
1680726335693396826,0.078
1680726335701092866,0.093
1680726335708788906,0.093
1680726335716484946,0.067
1680726335724180986,0.067
1680726335731877026,0.093
1680726335739573066,0.101
1680726335747269106,0.095
1680726335754965146,0.106
1680726335762661186,0.114
1680726335770357226,0.11
1680726335778053266,0.112
1680726335785749306,0.123
1680726335793445346,0.08700000000000001
1680726335801141386,-0.006
1680726335808837426,-0.065
1680726335816533466,-0.055
1680726335824229506,-0.044
1680726335831925546,-0.07200000000000001
1680726335839621586,-0.099
1680726335847317626,-0.11
1680726335855013666,-0.138
1680726335862709706,-0.184
1680726335870405746,-0.195
1680726335878101786,-0.17200000000000001
1680726335885797826,-0.167
1680726335893493866,-0.182
1680726335901189906,-0.193
1680726335908885946,-0.212
1680726335916581986,-0.24
1680726335924278026,-0.246
1680726335931974066,-0.225
1680726335939670106,-0.212
1680726335947366146,-0.216
1680726335955062186,-0.216,,703
1680726335962758226,-0.193
1680726335970454266,-0.165
1680726335978150306,-0.152
1680726335985846346,-0.148
1680726335993542386,-0.14
1680726336001238426,-0.11800000000000001
1680726336008934466,-0.101
1680726336016630506,-0.091
1680726336024326546,-0.07
1680726336032022586,-0.046
1680726336039718626,-0.046
1680726336047414666,-0.042
1680726336055110706,-0.002
1680726336062806746,0.044
1680726336070502786,0.067
1680726336078198826,0.082
1680726336085894866,0.076
1680726336093590906,0.05
1680726336101286946,0.048
1680726336108982986,0.07
1680726336116679026,0.089
1680726336124375066,0.10400000000000001
1680726336132071106,0.106
1680726336139767146,0.10400000000000001
1680726336147463186,0.101
1680726336155159226,0.127
1680726336162855266,0.339
1680726336170551306,0.8150000000000001
1680726336178247346,1.176
1680726336185943386,0.853
1680726336193639454,-0.025,89
1680726336201335494,-0.431
1680726336209031534,-0.067
1680726336216727574,0.176
1680726336224423614,0.057
1680726336232119654,0.044
1680726336239815694,0.127
1680726336247511734,0.093
1680726336255207774,0.023
1680726336262903814,0.023
1680726336270599854,0.038
1680726336278295894,0.033
1680726336285991934,0.038
1680726336293687974,0.061
1680726336301384014,0.065
1680726336309080054,0.012
1680726336316776094,-0.044
1680726336324472134,-0.029
1680726336332168174,0.006
1680726336339864214,0.014
1680726336347560254,0.025
1680726336355256294,0.053
1680726336362952334,0.067
1680726336370648374,0.07
1680726336378344414,0.082
1680726336386040454,0.11
1680726336393736494,0.133
1680726336401432534,0.125
1680726336409128574,0.093
1680726336416824614,0.089
1680726336424520654,0.11
1680726336432216694,0.114
1680726336439912734,0.114
1680726336447608774,0.131
1680726336455304814,0.131
1680726336463000854,0.121
1680726336470696894,0.129
1680726336478392934,0.157
1680726336486088974,0.18
1680726336493785014,0.193
1680726336501481054,0.193
1680726336509177094,0.203
1680726336516873134,0.218
1680726336524569174,0.21
1680726336532265214,0.178
1680726336539961254,0.146
1680726336547657294,0.11800000000000001
1680726336555353334,0.101
1680726336563049374,0.101
1680726336570745414,0.106
1680726336578441454,0.082
1680726336586137494,0.042
1680726336593833534,0.012
1680726336601529574,-0.019
1680726336609225614,-0.048
1680726336616921654,-0.059000000000000004
1680726336624617694,-0.053
1680726336632313734,-0.048
1680726336640009774,-0.067
1680726336647705814,-0.14400000000000002
1680726336655401854,-0.23700000000000002
1680726336663097894,-0.189
1680726336670793934,-0.07200000000000001
1680726336678489974,-0.08700000000000001
1680726336686186014,-0.129
1680726336693882054,-0.095,,741
1680726336701578094,-0.08
1680726336709274134,-0.089
1680726336716970174,-0.065
1680726336724666214,-0.046
1680726336732362254,-0.059000000000000004
1680726336740058294,-0.061
1680726336747754334,-0.031
1680726336755450402,-0.006,88
1680726336763146024,-0.002
1680726336770841646,0.002
1680726336778537268,0.008
1680726336786232890,-0.006
1680726336793928512,-0.04
1680726336801624134,-0.065
1680726336809319756,-0.101
1680726336817015378,-0.161
1680726336824711000,-0.191
1680726336832406622,-0.18
1680726336840102244,-0.157
1680726336847797866,-0.129
1680726336855493488,-0.114
1680726336863189110,-0.108
1680726336870884732,-0.097
1680726336878580354,-0.089
1680726336886275976,-0.082
1680726336893971598,-0.084
1680726336901667220,-0.095
1680726336909362842,-0.116
1680726336917058464,-0.148
1680726336924754086,-0.11800000000000001
1680726336932449708,-0.046
1680726336940145330,-0.038
1680726336947840952,-0.033
1680726336955536574,0.008
1680726336963232196,0.023
1680726336970927818,0.042
1680726336978623440,0.074
1680726336986319062,0.061
1680726336994014684,0.044
1680726337001710306,0.055
1680726337009405928,0.061
1680726337017101550,0.078
1680726337024797172,0.07
1680726337032492794,-0.01
1680726337040188416,-0.059000000000000004
1680726337047884038,0.016
1680726337055579660,0.267
1680726337063275282,0.743
1680726337070970904,1.191
1680726337078666526,1.07
1680726337086362148,0.263
1680726337094057770,-0.371
1680726337101753392,-0.169
1680726337109449014,0.184
1680726337117144636,0.163
1680726337124840258,0.127
1680726337132535880,0.193
1680726337140231502,0.176
1680726337147927124,0.112
1680726337155622746,0.097
1680726337163318368,0.11
1680726337171013990,0.116
1680726337178709612,0.129
1680726337186405234,0.129
1680726337194100856,0.138
1680726337201796478,0.189
1680726337209492100,0.20600000000000002
1680726337217187722,0.152
1680726337224883344,0.15
1680726337232578966,0.223
1680726337240274588,0.254
1680726337247970210,0.229
1680726337255665832,0.23500000000000001
1680726337263361454,0.267
1680726337271057076,0.273
1680726337278752698,0.265
1680726337286448320,0.28
1680726337294143942,0.293
1680726337301839564,0.267
1680726337309535186,0.22
1680726337317230834,0.199
1680726337324926874,0.193
1680726337332622914,0.159
1680726337340318954,0.114
1680726337348014994,0.095
1680726337355711034,0.093
1680726337363407074,0.08700000000000001
1680726337371103114,0.074
1680726337378799154,0.057
1680726337386495194,-0.002
1680726337394191234,-0.093
1680726337401887274,-0.14200000000000002
1680726337409583314,-0.159
1680726337417279354,-0.20600000000000002
1680726337424975394,-0.259
1680726337432671434,-0.276
1680726337440367474,-0.267
1680726337448063514,-0.276
1680726337455759554,-0.307
1680726337463455594,-0.324
1680726337471151634,-0.324
1680726337478847674,-0.327
1680726337486543714,-0.322
1680726337494239754,-0.297
1680726337501935794,-0.269,,809
1680726337509631834,-0.261
1680726337517327874,-0.259
1680726337525023914,-0.24
1680726337532719954,-0.214
1680726337540415994,-0.197
1680726337548112034,-0.182
1680726337555808074,-0.167
1680726337563504114,-0.157
1680726337571200154,-0.146
1680726337578896194,-0.131
1680726337586592234,-0.108
1680726337594288274,-0.08
1680726337601984314,-0.07
1680726337609680354,-0.07
1680726337617376394,-0.057
1680726337625072434,-0.031
1680726337632768474,-0.027
1680726337640464514,-0.046
1680726337648160554,-0.044
1680726337655856594,-0.029
1680726337663552634,-0.027
1680726337671248674,-0.012
1680726337678944714,0.012
1680726337686640754,0.031
1680726337694336794,0.036000000000000004
1680726337702032834,0.036000000000000004
1680726337709728874,0.053
1680726337717424914,0.074
1680726337725120954,0.084
1680726337732816994,0.101
1680726337740513034,0.121
1680726337748209074,0.121
1680726337755905114,0.114
1680726337763601154,0.129
1680726337771297194,0.155
1680726337778993234,0.17200000000000001
1680726337786689274,0.189
1680726337794385314,0.203
1680726337802081354,0.218
1680726337809777394,0.203
1680726337817473434,0.123
1680726337825169474,0.067
1680726337832865514,0.084
1680726337840561554,0.084
1680726337848257594,0.063
1680726337855953634,0.082
1680726337863649674,0.11
1680726337871345714,0.116
1680726337879041782,0.11,81
1680726337886737404,0.199
1680726337894433026,0.5640000000000001
1680726337902128648,1.055
1680726337909824270,1.1400000000000001
1680726337917519892,0.46900000000000003
1680726337925215514,-0.34400000000000003
1680726337932911136,-0.38
1680726337940606758,-0.019
1680726337948302380,0.031
1680726337955998002,-0.016
1680726337963693624,0.038
1680726337971389246,0.048
1680726337979084868,0.029
1680726337986780490,0.055
1680726337994476112,0.084
1680726338002171734,0.095
1680726338009867356,0.11800000000000001
1680726338017562978,0.138
1680726338025258600,0.131
1680726338032954222,0.135
1680726338040649844,0.17200000000000001
1680726338048345466,0.195
1680726338056041088,0.199
1680726338063736710,0.214
1680726338071432332,0.233
1680726338079127954,0.24
1680726338086823576,0.252
1680726338094519198,0.307
1680726338102214820,0.367
1680726338109910442,0.365
1680726338117606064,0.327
1680726338125301686,0.305
1680726338132997308,0.31
1680726338140692930,0.324
1680726338148388552,0.314
1680726338156084174,0.297
1680726338163779796,0.295
1680726338171475418,0.28600000000000003
1680726338179171040,0.267
1680726338186866662,0.254
1680726338194562284,0.23500000000000001
1680726338202257906,0.20600000000000002
1680726338209953528,0.18
1680726338217649150,0.169
1680726338225344772,0.17200000000000001
1680726338233040394,0.14
1680726338240736016,0.091
1680726338248431638,0.053
1680726338256127260,0.0
1680726338263822882,-0.061
1680726338271518504,-0.084
1680726338279214126,-0.076
1680726338286909748,-0.084
1680726338294605370,-0.106
1680726338302300992,-0.116
1680726338309996614,-0.125
1680726338317692236,-0.17200000000000001
1680726338325387858,-0.229
1680726338333083480,-0.229
1680726338340779102,-0.20800000000000002
1680726338348474724,-0.223,,846
1680726338356170346,-0.231
1680726338363865968,-0.212
1680726338371561590,-0.216
1680726338379257212,-0.25
1680726338386952834,-0.257
1680726338394648456,-0.242
1680726338402344078,-0.23700000000000002
1680726338410039700,-0.225
1680726338417735322,-0.203
1680726338425430944,-0.182
1680726338433126566,-0.165
1680726338440822212,-0.161
1680726338448517834,-0.157
1680726338456213456,-0.131
1680726338463909078,-0.101
1680726338471604700,-0.093
1680726338479300322,-0.089
1680726338486995944,-0.08
1680726338494691566,-0.078
1680726338502387188,-0.106
1680726338510082810,-0.133
1680726338517778432,-0.112
1680726338525474054,-0.091
1680726338533169676,-0.101
1680726338540865298,-0.091
1680726338548560920,-0.05
1680726338556256542,-0.025
1680726338563952164,-0.016
1680726338571647786,-0.002
1680726338579343408,0.014
1680726338587039030,0.033
1680726338594734652,0.061
1680726338602430274,0.095
1680726338610125896,0.129
1680726338617821518,0.112
1680726338625517140,0.042
1680726338633212762,0.023
1680726338640908384,0.065
1680726338648604006,0.078
1680726338656299628,0.07
1680726338663995250,0.089
1680726338671690872,0.10400000000000001
1680726338679386494,0.089
1680726338687082116,0.08700000000000001
1680726338694777738,0.233
1680726338702473360,0.66
1680726338710168982,1.176
1680726338717864604,1.2510000000000001
1680726338725560226,0.554
1680726338733255848,-0.257
1680726338740951470,-0.23700000000000002
1680726338748647092,0.18
1680726338756342714,0.20600000000000002
1680726338764038336,0.11
1680726338771733958,0.159
1680726338779429580,0.178
1680726338787125202,0.163
1680726338794820824,0.199
1680726338802516446,0.223
1680726338810212068,0.199
1680726338817907690,0.161
1680726338825603312,0.11800000000000001
1680726338833298934,0.101
1680726338840994556,0.116
1680726338848690178,0.129
1680726338856385800,0.129
1680726338864081422,0.114
1680726338871777044,0.099
1680726338879472666,0.11
1680726338887168288,0.131
1680726338894863910,0.133
1680726338902559532,0.131
1680726338910255154,0.138
1680726338917950776,0.146
1680726338925646398,0.163
1680726338933342020,0.191
1680726338941037642,0.212
1680726338948733264,0.212
1680726338956428886,0.203
1680726338964124508,0.20600000000000002
1680726338971820130,0.214
1680726338979515752,0.214
1680726338987211374,0.20800000000000002
1680726338994906996,0.195
1680726339002602642,0.197,79
1680726339010298682,0.20800000000000002
1680726339017994722,0.218
1680726339025690762,0.23500000000000001
1680726339033386802,0.24
1680726339041082842,0.193
1680726339048778882,0.127
1680726339056474922,0.11800000000000001
1680726339064170962,0.123
1680726339071867002,0.076
1680726339079563042,0.038
1680726339087259082,0.036000000000000004
1680726339094955122,0.033
1680726339102651162,0.016
1680726339110347202,-0.016
1680726339118043242,-0.065
1680726339125739282,-0.101
1680726339133435322,-0.14
1680726339141131362,-0.182
1680726339148827402,-0.184
1680726339156523442,-0.17400000000000002
1680726339164219482,-0.189
1680726339171915522,-0.195
1680726339179611562,-0.191
1680726339187307602,-0.193
1680726339195003642,-0.197
1680726339202699682,-0.184
1680726339210395722,-0.163
1680726339218091762,-0.161
1680726339225787802,-0.17400000000000002
1680726339233483842,-0.165,,882
1680726339241179882,-0.14200000000000002
1680726339248875922,-0.14
1680726339256571962,-0.14200000000000002
1680726339264268002,-0.127
1680726339271964042,-0.116
1680726339279660082,-0.11800000000000001
1680726339287356122,-0.11
1680726339295052162,-0.08700000000000001
1680726339302748202,-0.063
1680726339310444242,-0.057
1680726339318140282,-0.067
1680726339325836322,-0.095
1680726339333532362,-0.135
1680726339341228402,-0.152
1680726339348924442,-0.14400000000000002
1680726339356620482,-0.159
1680726339364316522,-0.195
1680726339372012562,-0.203
1680726339379708602,-0.184
1680726339387404642,-0.163
1680726339395100682,-0.14400000000000002
1680726339402796722,-0.133
1680726339410492762,-0.114
1680726339418188802,-0.07200000000000001
1680726339425884842,-0.025
1680726339433580882,-0.004
1680726339441276922,-0.006
1680726339448972962,-0.021
1680726339456669002,-0.027
1680726339464365042,-0.019
1680726339472061082,0.0
1680726339479757122,0.025
1680726339487453162,0.046
1680726339495149202,0.053
1680726339502845242,0.042
1680726339510541282,0.05
1680726339518237322,0.203
1680726339525933362,0.635
1680726339533629402,1.157
1680726339541325442,1.238
1680726339549021482,0.528
1680726339556717522,-0.295
1680726339564413590,-0.25
1680726339572109212,0.184
1680726339579804834,0.18
1680726339587500456,0.063
1680726339595196078,0.135
1680726339602891700,0.133
1680726339610587322,0.025
1680726339618282944,-0.006
1680726339625978566,0.025
1680726339633674188,0.031
1680726339641369810,0.016
1680726339649065432,0.021
1680726339656761054,0.048
1680726339664456676,0.074
1680726339672152298,0.082
1680726339679847920,0.093
1680726339687543542,0.11
1680726339695239164,0.125
1680726339702934786,0.138
1680726339710630408,0.155
1680726339718326030,0.182
1680726339726021652,0.201
1680726339733717274,0.199
1680726339741412896,0.201
1680726339749108518,0.227
1680726339756804140,0.246
1680726339764499762,0.244
1680726339772195384,0.246
1680726339779891006,0.25
1680726339787586628,0.242
1680726339795282250,0.231
1680726339802977872,0.23500000000000001
1680726339810673494,0.25
1680726339818369116,0.254
1680726339826064738,0.223
1680726339833760360,0.159
1680726339841455982,0.131
1680726339849151604,0.135
1680726339856847226,0.114
1680726339864542848,0.099
1680726339872238470,0.099
1680726339879934092,0.089
1680726339887629714,0.078
1680726339895325336,0.089
1680726339903020958,0.108
1680726339910716580,0.10400000000000001
1680726339918412202,0.091
1680726339926107824,0.099
1680726339933803446,0.123
1680726339941499068,0.129
1680726339949194690,0.133
1680726339956890312,0.146
1680726339964585934,0.133
1680726339972281556,0.091
1680726339979977178,0.074
1680726339987672800,0.091
1680726339995368422,0.095
1680726340003064044,0.074
1680726340010759666,0.038
1680726340018455288,0.01
1680726340026150910,-0.004
1680726340033846532,-0.036000000000000004
1680726340041542154,-0.067
1680726340049237776,-0.07200000000000001
1680726340056933398,-0.082
1680726340064629020,-0.106
1680726340072324642,-0.101
1680726340080020264,-0.082
1680726340087715886,-0.076
1680726340095411508,-0.097
1680726340103107130,-0.131
1680726340110802752,-0.138
1680726340118498374,-0.125
1680726340126194020,-0.127,78,898
1680726340133889990,-0.116
1680726340141585960,-0.101
1680726340149281930,-0.14
1680726340156977900,-0.195
1680726340164673870,-0.189
1680726340172369840,-0.157
1680726340180065810,-0.157
1680726340187761780,-0.163
1680726340195457750,-0.15
1680726340203153720,-0.133
1680726340210849690,-0.127
1680726340218545660,-0.114
1680726340226241630,-0.08700000000000001
1680726340233937600,-0.065
1680726340241633570,-0.074
1680726340249329540,-0.08
1680726340257025510,-0.055
1680726340264721480,-0.029
1680726340272417450,-0.025
1680726340280113420,-0.025
1680726340287809390,-0.008
1680726340295505360,0.021
1680726340303201330,0.042
1680726340310897300,0.067
1680726340318593270,0.099
1680726340326289240,0.08
1680726340333985210,-0.014
1680726340341681180,-0.093
1680726340349377150,-0.099
1680726340357073120,-0.093
1680726340364769090,-0.099
1680726340372465060,-0.091
1680726340380161030,-0.078
1680726340387857000,-0.089
1680726340395552970,-0.076
1680726340403248940,0.125
1680726340410944910,0.611
1680726340418640880,1.091
1680726340426336850,1.0
1680726340434032820,0.191
1680726340441728790,-0.47500000000000003
1680726340449424760,-0.276
1680726340457120730,0.08700000000000001
1680726340464816700,0.033
1680726340472512670,-0.027
1680726340480208640,0.053
1680726340487904610,0.063
1680726340495600580,0.057
1680726340503296550,0.106
1680726340510992520,0.127
1680726340518688490,0.112
1680726340526384460,0.129
1680726340534080430,0.161
1680726340541776400,0.17200000000000001
1680726340549472370,0.184
1680726340557168340,0.20600000000000002
1680726340564864310,0.216
1680726340572560280,0.212
1680726340580256250,0.223
1680726340587952220,0.223
1680726340595648190,0.191
1680726340603344160,0.17400000000000002
1680726340611040130,0.178
1680726340618736100,0.186
1680726340626432070,0.197
1680726340634128040,0.203
1680726340641824010,0.21
1680726340649519980,0.225
1680726340657215950,0.218
1680726340664911920,0.197
1680726340672607890,0.199
1680726340680303860,0.218
1680726340687999884,0.218,77
1680726340695695576,0.201
1680726340703391268,0.193
1680726340711086960,0.197
1680726340718782652,0.20600000000000002
1680726340726478344,0.212
1680726340734174036,0.229
1680726340741869728,0.244
1680726340749565420,0.20800000000000002
1680726340757261112,0.14400000000000002
1680726340764956804,0.127
1680726340772652496,0.14200000000000002
1680726340780348188,0.129
1680726340788043880,0.108
1680726340795739572,0.11
1680726340803435264,0.116
1680726340811130956,0.116
1680726340818826648,0.121
1680726340826522340,0.127
1680726340834218032,0.084
1680726340841913724,0.008
1680726340849609416,-0.012
1680726340857305108,0.002
1680726340865000800,-0.023
1680726340872696492,-0.057
1680726340880392184,-0.059000000000000004
1680726340888087876,-0.057
1680726340895783568,-0.067
1680726340903479260,-0.089
1680726340911174952,-0.114
1680726340918870644,-0.125
1680726340926566336,-0.15
1680726340934262028,-0.199
1680726340941957720,-0.216
1680726340949653412,-0.195
1680726340957349104,-0.193
1680726340965044796,-0.201
1680726340972740488,-0.195
1680726340980436180,-0.189
1680726340988131872,-0.193
1680726340995827564,-0.191
1680726341003523256,-0.17200000000000001
1680726341011218948,-0.15
1680726341018914640,-0.14400000000000002
1680726341026610332,-0.155,,895
1680726341034306024,-0.14400000000000002
1680726341042001716,-0.11800000000000001
1680726341049697408,-0.108
1680726341057393100,-0.10400000000000001
1680726341065088792,-0.08700000000000001
1680726341072784484,-0.076
1680726341080480176,-0.093
1680726341088175868,-0.11
1680726341095871560,-0.093
1680726341103567252,-0.07
1680726341111262944,-0.07
1680726341118958636,-0.076
1680726341126654328,-0.061
1680726341134350020,-0.036000000000000004
1680726341142045712,-0.023
1680726341149741404,-0.014
1680726341157437096,0.004
1680726341165132788,0.012
1680726341172828480,0.008
1680726341180524172,0.023
1680726341188219864,0.05
1680726341195915556,0.065
1680726341203611248,0.065
1680726341211306940,0.065
1680726341219002632,0.082
1680726341226698324,0.101
1680726341234394016,0.10400000000000001
1680726341242089708,0.108
1680726341249785400,0.121
1680726341257481231,0.112
1680726341265177062,0.095
1680726341272872893,0.112
1680726341280568724,0.155
1680726341288264555,0.178
1680726341295960386,0.18
1680726341303656217,0.18
1680726341311352048,0.167
1680726341319047879,0.161
1680726341326743710,0.163
1680726341334439541,0.131
1680726341342135372,0.055
1680726341349831203,-0.042
1680726341357527034,-0.106
1680726341365222865,-0.108
1680726341372918696,-0.106
1680726341380614527,-0.065
1680726341388310358,0.231
1680726341396006189,0.773
1680726341403702020,1.112
1680726341411397851,0.713
1680726341419093682,-0.212
1680726341426789513,-0.56
1680726341434485344,-0.159
1680726341442181175,0.023
1680726341449877006,-0.11
1680726341457572837,-0.07200000000000001
1680726341465268668,0.019
1680726341472964499,0.002
1680726341480660330,0.008
1680726341488356161,0.044
1680726341496051992,0.048
1680726341503747823,0.057
1680726341511443654,0.089
1680726341519139485,0.116
1680726341526835316,0.121
1680726341534531147,0.116
1680726341542226978,0.14400000000000002
1680726341549922809,0.178
1680726341557618640,0.189
1680726341565314471,0.195
1680726341573010302,0.186
1680726341580706133,0.152
1680726341588401964,0.135
1680726341596097795,0.135
1680726341603793626,0.121
1680726341611489457,0.133
1680726341619185288,0.186
1680726341626881119,0.195
1680726341634576950,0.178
1680726341642272781,0.201
1680726341649968612,0.20800000000000002
1680726341657664443,0.184
1680726341665360274,0.17400000000000002
1680726341673056105,0.17200000000000001
1680726341680751936,0.165
1680726341688447767,0.165
1680726341696143598,0.159
1680726341703839429,0.138
1680726341711535260,0.129
1680726341719231091,0.129
1680726341726926922,0.131
1680726341734622753,0.125
1680726341742318584,0.093
1680726341750014415,0.063
1680726341757710246,0.031
1680726341765406077,-0.025
1680726341773101908,-0.078
1680726341780797739,-0.125
1680726341788493570,-0.182
1680726341796189401,-0.199
1680726341803885232,-0.186
1680726341811581088,-0.203,77
1680726341819276919,-0.229
1680726341826972750,-0.244
1680726341834668581,-0.276
1680726341842364412,-0.316
1680726341850060243,-0.316
1680726341857756074,-0.324,,833
1680726341865451905,-0.378
1680726341873147736,-0.375
1680726341880843567,-0.31
1680726341888539398,-0.29
1680726341896235229,-0.318
1680726341903931060,-0.322
1680726341911626891,-0.293
1680726341919322722,-0.267
1680726341927018553,-0.267
1680726341934714384,-0.252
1680726341942410215,-0.22
1680726341950106046,-0.223
1680726341957801877,-0.229
1680726341965497708,-0.182
1680726341973193539,-0.138
1680726341980889370,-0.133
1680726341988585201,-0.127
1680726341996281032,-0.099
1680726342003976863,-0.089
1680726342011672694,-0.082
1680726342019368525,-0.061
1680726342027064356,-0.025
1680726342034760187,-0.004
1680726342042456018,-0.008
1680726342050151849,-0.004
1680726342057847680,0.014
1680726342065543511,0.012
1680726342073239342,-0.012
1680726342080935173,-0.016
1680726342088631004,-0.002
1680726342096326835,0.004
1680726342104022666,0.012
1680726342111718497,0.033
1680726342119414328,0.055
1680726342127110159,0.061
1680726342134805990,0.059000000000000004
1680726342142501821,0.07200000000000001
1680726342150197652,0.097
1680726342157893483,0.11
1680726342165589314,0.116
1680726342173285145,0.133
1680726342180980976,0.14200000000000002
1680726342188676807,0.14200000000000002
1680726342196372638,0.148
1680726342204068469,0.169
1680726342211764300,0.195
1680726342219460131,0.197
1680726342227155962,0.18
1680726342234851793,0.189
1680726342242547624,0.229
1680726342250243455,0.25
1680726342257939286,0.252
1680726342265635117,0.263
1680726342273330948,0.24
1680726342281026779,0.193
1680726342288722610,0.195
1680726342296418441,0.223
1680726342304114272,0.233
1680726342311810103,0.216
1680726342319505934,0.189
1680726342327201765,0.176
1680726342334897596,0.18
1680726342342593427,0.203
1680726342350289258,0.399
1680726342357985089,0.86
1680726342365680920,1.208
1680726342373376778,0.851
1680726342381072400,-0.055
1680726342388768022,-0.443
1680726342396463644,-0.082
1680726342404159266,0.127
1680726342411854888,0.04
1680726342419550510,0.065
1680726342427246132,0.11
1680726342434941754,0.044
1680726342442637376,0.019
1680726342450332998,0.057
1680726342458028620,0.055
1680726342465724242,0.031
1680726342473419864,0.031
1680726342481115486,0.04
1680726342488811108,0.053
1680726342496506730,0.055
1680726342504202352,0.04
1680726342511897974,0.057
1680726342519593596,0.095
1680726342527289218,0.091
1680726342534984840,0.093
1680726342542680462,0.127
1680726342550376084,0.112
1680726342558071706,0.057
1680726342565767328,0.016
1680726342573462950,-0.012
1680726342581158572,-0.033
1680726342588854194,-0.044
1680726342596549816,-0.053
1680726342604245438,-0.057
1680726342611941060,-0.061
1680726342619636682,-0.065
1680726342627332304,-0.059000000000000004
1680726342635027926,-0.065
1680726342642723548,-0.101
1680726342650419170,-0.114
1680726342658114792,-0.08
1680726342665810414,-0.05,,808
1680726342673506036,-0.048
1680726342681201658,-0.04
1680726342688897280,-0.031
1680726342696592902,-0.036000000000000004
1680726342704288524,-0.04
1680726342711984146,-0.036000000000000004
1680726342719679768,-0.025
1680726342727375390,-0.029
1680726342735071012,-0.048
1680726342742766634,-0.042
1680726342750462256,-0.008
1680726342758157878,0.006
1680726342765853500,0.008
1680726342773549122,0.023
1680726342781244744,0.038
1680726342788940366,0.036000000000000004
1680726342796635988,0.027
1680726342804331610,0.021
1680726342812027232,0.01
1680726342819722854,-0.008
1680726342827418476,-0.025
1680726342835114098,-0.023
1680726342842809720,-0.012
1680726342850505342,-0.036000000000000004
1680726342858200964,-0.08
1680726342865896586,-0.084
1680726342873592208,-0.07200000000000001
1680726342881287830,-0.08
1680726342888983452,-0.078
1680726342896679074,-0.059000000000000004
1680726342904374696,-0.036000000000000004
1680726342912070318,-0.021
1680726342919765940,-0.016
1680726342927461562,-0.01
1680726342935157208,0.016,76
1680726342942853248,0.04
1680726342950549288,0.044
1680726342958245328,0.055
1680726342965941368,0.048
1680726342973637408,0.0
1680726342981333448,-0.031
1680726342989029488,-0.008
1680726342996725528,0.006
1680726343004421568,-0.006
1680726343012117608,-0.008
1680726343019813648,0.01
1680726343027509688,0.023
1680726343035205728,0.027
1680726343042901768,0.042
1680726343050597808,0.033
1680726343058293848,-0.01
1680726343065989888,-0.031
1680726343073685928,-0.012
1680726343081381968,0.01
1680726343089078008,0.019
1680726343096774048,0.023
1680726343104470088,0.031
1680726343112166128,0.046
1680726343119862168,0.059000000000000004
1680726343127558208,0.067
1680726343135254248,0.091
1680726343142950288,0.11
1680726343150646328,0.106
1680726343158342368,0.101
1680726343166038408,0.127
1680726343173734448,0.15
1680726343181430488,0.155
1680726343189126528,0.161
1680726343196822568,0.189
1680726343204518608,0.218
1680726343212214648,0.248
1680726343219910688,0.269
1680726343227606728,0.267
1680726343235302768,0.244
1680726343242998808,0.223
1680726343250694848,0.22
1680726343258390888,0.231
1680726343266086928,0.246
1680726343273782968,0.246
1680726343281479008,0.24
1680726343289175048,0.227
1680726343296871088,0.21
1680726343304567128,0.339
1680726343312263168,0.773
1680726343319959208,1.289
1680726343327655248,1.299
1680726343335351288,0.49
1680726343343047328,-0.352
1680726343350743368,-0.295
1680726343358439408,0.05
1680726343366135448,-0.053
1680726343373831488,-0.191
1680726343381527528,-0.14400000000000002
1680726343389223568,-0.169
1680726343396919608,-0.23700000000000002
1680726343404615648,-0.22
1680726343412311688,-0.191
1680726343420007728,-0.21
1680726343427703768,-0.218
1680726343435399808,-0.197
1680726343443095848,-0.18
1680726343450791888,-0.17200000000000001
1680726343458487928,-0.146
1680726343466183968,-0.11
1680726343473880008,-0.101
1680726343481576048,-0.125
1680726343489272088,-0.121,,823
1680726343496968156,-0.082
1680726343504663360,-0.055
1680726343512358564,-0.053
1680726343520053768,-0.053
1680726343527748972,-0.038
1680726343535444176,-0.012
1680726343543139380,-0.016
1680726343550834584,-0.038
1680726343558529788,-0.036000000000000004
1680726343566224992,-0.044
1680726343573920196,-0.095
1680726343581615400,-0.127
1680726343589310604,-0.10400000000000001
1680726343597005808,-0.089
1680726343604701012,-0.10400000000000001
1680726343612396216,-0.108
1680726343620091420,-0.08700000000000001
1680726343627786624,-0.07
1680726343635481828,-0.055
1680726343643177032,-0.031
1680726343650872236,-0.012
1680726343658567440,-0.025
1680726343666262644,-0.036000000000000004
1680726343673957848,-0.019
1680726343681653052,0.0
1680726343689348256,0.004
1680726343697043460,0.006
1680726343704738664,0.014
1680726343712433868,0.029
1680726343720129072,0.044
1680726343727824276,0.057
1680726343735519480,0.082
1680726343743214684,0.10400000000000001
1680726343750909888,0.099
1680726343758605092,0.097
1680726343766300296,0.11800000000000001
1680726343773995500,0.14400000000000002
1680726343781690704,0.157
1680726343789385908,0.146
1680726343797081112,0.11
1680726343804776316,0.095
1680726343812471520,0.10400000000000001
1680726343820166724,0.106
1680726343827861928,0.11800000000000001
1680726343835557132,0.133
1680726343843252336,0.123
1680726343850947540,0.106
1680726343858642744,0.078
1680726343866337948,0.025
1680726343874033152,0.004
1680726343881728356,0.019
1680726343889423560,0.021
1680726343897118764,0.019
1680726343904813968,0.025
1680726343912509172,0.038
1680726343920204376,0.061
1680726343927899580,0.07200000000000001
1680726343935594784,0.063
1680726343943289988,0.07
1680726343950985192,0.095
1680726343958680396,0.108
1680726343966375600,0.11
1680726343974070804,0.123
1680726343981766008,0.133
1680726343989461212,0.133
1680726343997156416,0.138
1680726344004851620,0.155
1680726344012546824,0.17400000000000002
1680726344020242028,0.176
1680726344027937232,0.161
1680726344035632436,0.14400000000000002
1680726344043327640,0.123
1680726344051022844,0.108
1680726344058718070,0.114,76
1680726344066414110,0.125
1680726344074110150,0.125
1680726344081806190,0.116
1680726344089502230,0.121
1680726344097198270,0.14200000000000002
1680726344104894310,0.157
1680726344112590350,0.15
1680726344120286390,0.14
1680726344127982430,0.146
1680726344135678470,0.152
1680726344143374510,0.114
1680726344151070550,0.08
1680726344158766590,0.089
1680726344166462630,0.095
1680726344174158670,0.074
1680726344181854710,0.076
1680726344189550750,0.114
1680726344197246790,0.15
1680726344204942830,0.15
1680726344212638870,0.135
1680726344220334910,0.121
1680726344228030950,0.089
1680726344235726990,0.053
1680726344243423030,0.053
1680726344251119070,0.048
1680726344258815110,0.0
1680726344266511150,-0.042
1680726344274207190,-0.061
1680726344281903230,-0.112
1680726344289599270,-0.193
1680726344297295310,-0.193
1680726344304991350,0.044
1680726344312687390,0.545
1680726344320383430,0.9550000000000001
1680726344328079470,0.713
1680726344335775510,-0.176
1680726344343471550,-0.726
1680726344351167590,-0.435
1680726344358863630,-0.169
1680726344366559670,-0.327
1680726344374255710,-0.392,,884
1680726344381951750,-0.303
1680726344389647790,-0.307
1680726344397343830,-0.327
1680726344405039870,-0.28
1680726344412735910,-0.259
1680726344420431950,-0.257
1680726344428127990,-0.218
1680726344435824030,-0.178
1680726344443520070,-0.178
1680726344451216110,-0.163
1680726344458912150,-0.121
1680726344466608190,-0.099
1680726344474304230,-0.084
1680726344482000270,-0.042
1680726344489696310,-0.008
1680726344497392350,0.004
1680726344505088390,0.023
1680726344512784430,0.05
1680726344520480470,0.07
1680726344528176510,0.067
1680726344535872550,0.044
1680726344543568590,0.042
1680726344551264630,0.07
1680726344558960670,0.08
1680726344566656710,0.067
1680726344574352750,0.05
1680726344582048790,0.053
1680726344589744830,0.078
1680726344597440870,0.10400000000000001
1680726344605136910,0.11800000000000001
1680726344612832950,0.133
1680726344620529018,0.138
1680726344628224640,0.125
1680726344635920262,0.133
1680726344643615884,0.163
1680726344651311506,0.17200000000000001
1680726344659007128,0.163
1680726344666702750,0.167
1680726344674398372,0.157
1680726344682093994,0.101
1680726344689789616,0.055
1680726344697485238,0.061
1680726344705180860,0.076
1680726344712876482,0.065
1680726344720572104,0.059000000000000004
1680726344728267726,0.076
1680726344735963348,0.097
1680726344743658970,0.10400000000000001
1680726344751354592,0.108
1680726344759050214,0.121
1680726344766745836,0.112
1680726344774441458,0.093
1680726344782137080,0.097
1680726344789832702,0.10400000000000001
1680726344797528324,0.101
1680726344805223946,0.097
1680726344812919568,0.093
1680726344820615190,0.10400000000000001
1680726344828310812,0.112
1680726344836006434,0.114
1680726344843702056,0.129
1680726344851397678,0.146
1680726344859093300,0.14
1680726344866788922,0.11800000000000001
1680726344874484544,0.078
1680726344882180166,0.036000000000000004
1680726344889875788,0.029
1680726344897571410,0.029
1680726344905267032,0.016
1680726344912962654,0.029
1680726344920658276,0.046
1680726344928353898,0.046
1680726344936049520,0.065
1680726344943745142,0.084
1680726344951440764,0.07200000000000001
1680726344959136386,0.074
1680726344966832008,0.10400000000000001
1680726344974527630,0.11800000000000001
1680726344982223252,0.116
1680726344989918874,0.11800000000000001
1680726344997614496,0.127
1680726345005310118,0.138
1680726345013005740,0.14200000000000002
1680726345020701362,0.116
1680726345028396984,0.095
1680726345036092606,0.097
1680726345043788228,0.08700000000000001
1680726345051483850,0.07200000000000001
1680726345059179472,0.089
1680726345066875094,0.11
1680726345074570716,0.121
1680726345082266338,0.093
1680726345089961960,0.048
1680726345097657582,0.093
1680726345105353204,0.176
1680726345113048826,0.159
1680726345120744448,0.14400000000000002
1680726345128440070,0.18
1680726345136135692,0.11800000000000001
1680726345143831314,0.008
1680726345151526936,0.067
1680726345159222558,0.21
1680726345166918180,0.218
1680726345174613802,0.148
1680726345182309448,0.17400000000000002,75
1680726345190005070,0.23700000000000002
1680726345197700692,0.182
1680726345205396314,0.10400000000000001
1680726345213091936,0.127
1680726345220787558,0.114
1680726345228483180,0.057
1680726345236178802,0.089
1680726345243874424,0.08
1680726345251570046,-0.038
1680726345259265668,-0.129
1680726345266961290,-0.165
1680726345274656912,-0.123
1680726345282352534,0.191
1680726345290048156,0.705
1680726345297743778,0.885
1680726345305439400,0.263
1680726345313135022,-0.643
1680726345320830644,-0.754
1680726345328526266,-0.32
1680726345336221888,-0.225
1680726345343917510,-0.301
1680726345351613132,-0.231,,982
1680726345359308754,-0.189
1680726345367004376,-0.216
1680726345374699998,-0.233
1680726345382395620,-0.265
1680726345390091242,-0.265
1680726345397786864,-0.22
1680726345405482486,-0.218
1680726345413178108,-0.229
1680726345420873730,-0.195
1680726345428569352,-0.165
1680726345436264974,-0.157
1680726345443960596,-0.121
1680726345451656218,-0.08
1680726345459351840,-0.08
1680726345467047462,-0.074
1680726345474743084,-0.031
1680726345482438706,0.002
1680726345490134328,0.012
1680726345497829950,0.031
1680726345505525572,0.042
1680726345513221194,0.023
1680726345520916816,-0.004
1680726345528612438,0.004
1680726345536308060,0.029
1680726345544003682,0.031
1680726345551699304,0.023
1680726345559394926,0.025
1680726345567090548,0.031
1680726345574786170,0.042
1680726345582481792,0.042
1680726345590177414,0.025
1680726345597873036,0.059000000000000004
1680726345605568658,0.10400000000000001
1680726345613264280,0.089
1680726345620959902,0.084
1680726345628655524,0.11800000000000001
1680726345636351146,0.116
1680726345644046768,0.08700000000000001
1680726345651742390,0.084
1680726345659438012,0.106
1680726345667133634,0.114
1680726345674829256,0.11
1680726345682524878,0.121
1680726345690220500,0.135
1680726345697916122,0.14
1680726345705611744,0.14400000000000002
1680726345713307366,0.157
1680726345721002988,0.178
1680726345728698610,0.189
1680726345736394232,0.17400000000000002
1680726345744089878,0.17400000000000002,73
1680726345751785500,0.199
1680726345759481122,0.193
1680726345767176744,0.152
1680726345774872366,0.138
1680726345782567988,0.131
1680726345790263610,0.095
1680726345797959232,0.059000000000000004
1680726345805654854,0.061
1680726345813350476,0.074
1680726345821046098,0.063
1680726345828741720,0.044
1680726345836437342,0.057
1680726345844132964,0.076
1680726345851828586,0.078
1680726345859524208,0.08
1680726345867219830,0.08700000000000001
1680726345874915452,0.07
1680726345882611074,0.016
1680726345890306696,-0.016
1680726345898002318,0.008
1680726345905697940,0.036000000000000004
1680726345913393562,0.033
1680726345921089184,0.027
1680726345928784806,0.044
1680726345936480428,0.063
1680726345944176050,0.067
1680726345951871672,0.076
1680726345959567294,0.101
1680726345967262916,0.099
1680726345974958538,0.078
1680726345982654160,0.093
1680726345990349782,0.129
1680726345998045404,0.146
1680726346005741026,0.127
1680726346013436648,0.093
1680726346021132270,0.091
1680726346028827892,0.108
1680726346036523514,0.106
1680726346044219136,0.10400000000000001
1680726346051914758,0.11
1680726346059610380,0.095
1680726346067306002,0.095
1680726346075001624,0.131
1680726346082697246,0.169
1680726346090392868,0.182
1680726346098088490,0.167
1680726346105784112,0.14
1680726346113479734,0.138
1680726346121175356,0.155
1680726346128870978,0.167
1680726346136566600,0.193
1680726346144262222,0.21
1680726346151957844,0.18
1680726346159653466,0.133
1680726346167349088,0.11800000000000001
1680726346175044710,0.182
1680726346182740332,0.47300000000000003
1680726346190435954,0.996
1680726346198131576,1.304
1680726346205827198,0.8260000000000001
1680726346213522820,-0.17400000000000002
1680726346221218442,-0.547
1680726346228914064,-0.159
1680726346236609686,0.006
1680726346244305308,-0.163
1680726346252000930,-0.195
1680726346259696552,-0.161
1680726346267392174,-0.203
1680726346275087796,-0.214
1680726346282783418,-0.186
1680726346290479040,-0.191
1680726346298174662,-0.201
1680726346305870308,-0.191
1680726346313565930,-0.17200000000000001,,963
1680726346321261552,-0.152
1680726346328957174,-0.148
1680726346336652796,-0.157
1680726346344348418,-0.14400000000000002
1680726346352044040,-0.116
1680726346359739662,-0.129
1680726346367435284,-0.165
1680726346375130906,-0.163
1680726346382826528,-0.184
1680726346390522150,-0.257
1680726346398217772,-0.265
1680726346405913394,-0.214
1680726346413609016,-0.197
1680726346421304638,-0.20800000000000002
1680726346429000260,-0.203
1680726346436695882,-0.184
1680726346444391504,-0.165
1680726346452087126,-0.152
1680726346459782748,-0.135
1680726346467478370,-0.112
1680726346475173992,-0.108
1680726346482869614,-0.116
1680726346490565236,-0.114
1680726346498260858,-0.116
1680726346505956480,-0.14200000000000002
1680726346513652102,-0.167
1680726346521347724,-0.176
1680726346529043346,-0.169
1680726346536738968,-0.165
1680726346544434590,-0.161
1680726346552130212,-0.146
1680726346559825834,-0.125
1680726346567521456,-0.11800000000000001
1680726346575217078,-0.116
1680726346582912700,-0.091
1680726346590608322,-0.055
1680726346598303944,-0.031
1680726346605999566,-0.014
1680726346613695188,0.004
1680726346621390810,0.027
1680726346629086432,0.042
1680726346636782054,0.05
1680726346644477676,0.07200000000000001
1680726346652173298,0.108
1680726346659868920,0.129
1680726346667564542,0.121
1680726346675260164,0.123
1680726346682955786,0.14400000000000002
1680726346690651408,0.15
1680726346698347030,0.133
1680726346706042652,0.11800000000000001
1680726346713738274,0.125
1680726346721433896,0.135
1680726346729129518,0.159
1680726346736825140,0.193
1680726346744520762,0.182
1680726346752216384,0.116
1680726346759912006,0.097
1680726346767607628,0.138
1680726346775303250,0.155
1680726346782998872,0.138
1680726346790694494,0.135
1680726346798390116,0.159
1680726346806085738,0.17200000000000001
1680726346813781360,0.161
1680726346821476982,0.17200000000000001
1680726346829172604,0.212
1680726346836868226,0.223
1680726346844563848,0.197
1680726346852259470,0.197
1680726346859955092,0.233
1680726346867650740,0.254,72
1680726346875347128,0.252
1680726346883043516,0.25
1680726346890739904,0.212
1680726346898436292,0.112
1680726346906132680,0.033
1680726346913829068,0.031
1680726346921525456,0.046
1680726346929221844,0.031
1680726346936918232,0.012
1680726346944614620,0.019
1680726346952311008,0.042
1680726346960007396,0.048
1680726346967703784,0.05
1680726346975400172,0.065
1680726346983096560,0.07200000000000001
1680726346990792948,0.055
1680726346998489336,0.033
1680726347006185724,0.042
1680726347013882112,0.061
1680726347021578500,0.055
1680726347029274888,0.036000000000000004
1680726347036971276,0.044
1680726347044667664,0.08
1680726347052364052,0.106
1680726347060060440,0.11800000000000001
1680726347067756828,0.146
1680726347075453216,0.148
1680726347083149604,0.101
1680726347090845992,0.08700000000000001
1680726347098542380,0.121
1680726347106238768,0.133
1680726347113935156,0.101
1680726347121631544,0.07200000000000001
1680726347129327932,0.074
1680726347137024320,0.084
1680726347144720708,0.065
1680726347152417096,0.059000000000000004
1680726347160113484,0.225
1680726347167809872,0.66
1680726347175506260,1.121
1680726347183202648,1.064
1680726347190899036,0.24
1680726347198595424,-0.552
1680726347206291812,-0.435
1680726347213988200,-0.059000000000000004
1680726347221684588,-0.148
1680726347229380976,-0.252
1680726347237077364,-0.167
1680726347244773752,-0.182
1680726347252470140,-0.233
1680726347260166528,-0.20800000000000002
1680726347267862916,-0.197
1680726347275559304,-0.191,,958
1680726347283255692,-0.155
1680726347290952080,-0.129
1680726347298648468,-0.123
1680726347306344856,-0.10400000000000001
1680726347314041244,-0.08
1680726347321737632,-0.07
1680726347329434020,-0.04
1680726347337130408,-0.002
1680726347344826796,0.014
1680726347352523184,0.008
1680726347360219572,0.019
1680726347367915960,0.053
1680726347375612348,0.084
1680726347383308736,0.093
1680726347391005124,0.065
1680726347398701512,0.012
1680726347406397900,-0.012
1680726347414094288,-0.01
1680726347421790676,-0.016
1680726347429487120,-0.016
1680726347437182533,-0.012
1680726347444877946,-0.027
1680726347452573359,-0.031
1680726347460268772,-0.008
1680726347467964185,0.006
1680726347475659598,0.006
1680726347483355011,-0.008
1680726347491050424,-0.046
1680726347498745837,-0.095
1680726347506441250,-0.14200000000000002
1680726347514136663,-0.157
1680726347521832076,-0.138
1680726347529527489,-0.14400000000000002
1680726347537222902,-0.169
1680726347544918315,-0.159
1680726347552613728,-0.129
1680726347560309141,-0.121
1680726347568004554,-0.116
1680726347575699967,-0.091
1680726347583395380,-0.065
1680726347591090793,-0.057
1680726347598786206,-0.046
1680726347606481619,-0.021
1680726347614177032,0.01
1680726347621872445,0.016
1680726347629567858,0.014
1680726347637263271,0.04
1680726347644958684,0.065
1680726347652654097,0.065
1680726347660349510,0.07
1680726347668044923,0.089
1680726347675740336,0.091
1680726347683435749,0.08
1680726347691131162,0.093
1680726347698826575,0.11800000000000001
1680726347706521988,0.131
1680726347714217401,0.133
1680726347721912814,0.127
1680726347729608227,0.112
1680726347737303640,0.08700000000000001
1680726347744999053,0.074
1680726347752694466,0.08700000000000001
1680726347760389879,0.10400000000000001
1680726347768085292,0.101
1680726347775780705,0.097
1680726347783476118,0.11800000000000001
1680726347791171531,0.15
1680726347798866944,0.165
1680726347806562357,0.17200000000000001
1680726347814257770,0.178
1680726347821953183,0.184
1680726347829648596,0.186
1680726347837344009,0.186
1680726347845039422,0.199
1680726347852734835,0.218
1680726347860430248,0.214
1680726347868125661,0.195
1680726347875821074,0.203
1680726347883516487,0.231
1680726347891211900,0.22
1680726347898907313,0.167
1680726347906602726,0.133
1680726347914298139,0.14200000000000002
1680726347921993552,0.146
1680726347929688965,0.14400000000000002
1680726347937384378,0.163
1680726347945079791,0.182
1680726347952775204,0.17200000000000001
1680726347960470617,0.163
1680726347968166030,0.178
1680726347975861443,0.165
1680726347983556856,0.112
1680726347991252290,0.08700000000000001,71
1680726347998947772,0.093
1680726348006643254,0.093
1680726348014338736,0.08
1680726348022034218,0.08
1680726348029729700,0.112
1680726348037425182,0.14200000000000002
1680726348045120664,0.146
1680726348052816146,0.152
1680726348060511628,0.155
1680726348068207110,0.11
1680726348075902592,0.05
1680726348083598074,0.04
1680726348091293556,0.048
1680726348098989038,0.036000000000000004
1680726348106684520,0.014
1680726348114380002,0.002
1680726348122075484,-0.002
1680726348129770966,-0.021
1680726348137466448,-0.029
1680726348145161930,0.17400000000000002
1680726348152857412,0.673
1680726348160552894,1.1320000000000001
1680726348168248376,0.981
1680726348175943858,0.061
1680726348183639340,-0.709
1680726348191334822,-0.518
1680726348199030304,-0.135
1680726348206725786,-0.22
1680726348214421268,-0.28600000000000003
1680726348222116750,-0.197
1680726348229812232,-0.216
1680726348237507714,-0.242
1680726348245203196,-0.193
1680726348252898678,-0.189
1680726348260594160,-0.193
1680726348268289642,-0.155,,998
1680726348275985124,-0.165
1680726348283680606,-0.20600000000000002
1680726348291376088,-0.161
1680726348299071570,-0.08700000000000001
1680726348306767052,-0.082
1680726348314462534,-0.091
1680726348322158016,-0.065
1680726348329853498,-0.046
1680726348337548980,-0.04
1680726348345244462,-0.029
1680726348352939944,-0.006
1680726348360635426,0.019
1680726348368330908,0.027
1680726348376026390,0.033
1680726348383721872,0.057
1680726348391417354,0.059000000000000004
1680726348399112836,0.012
1680726348406808318,-0.036000000000000004
1680726348414503800,-0.042
1680726348422199282,-0.042
1680726348429894764,-0.05
1680726348437590246,-0.046
1680726348445285728,-0.006
1680726348452981210,0.027
1680726348460676692,0.016
1680726348468372174,0.004
1680726348476067656,0.006
1680726348483763138,0.006
1680726348491458620,-0.004
1680726348499154102,-0.014
1680726348506849584,-0.016
1680726348514545066,-0.01
1680726348522240548,0.0
1680726348529936030,0.0
1680726348537631512,0.006
1680726348545326994,0.016
1680726348553022548,0.008
1680726348560718170,0.006
1680726348568413792,0.027
1680726348576109414,0.046
1680726348583805036,0.048
1680726348591500658,0.063
1680726348599196280,0.08
1680726348606891902,0.063
1680726348614587524,0.027
1680726348622283146,0.019
1680726348629978768,0.038
1680726348637674390,0.038
1680726348645370012,0.014
1680726348653065634,0.008
1680726348660761256,0.021
1680726348668456878,0.012
1680726348676152500,0.008
1680726348683848122,0.036000000000000004
1680726348691543744,0.033
1680726348699239366,0.008
1680726348706934988,0.014
1680726348714630610,0.031
1680726348722326232,0.036000000000000004
1680726348730021854,0.038
1680726348737717476,0.033
1680726348745413098,0.038
1680726348753108720,0.065
1680726348760804342,0.07
1680726348768499964,0.055
1680726348776195586,0.067
1680726348783891208,0.08700000000000001
1680726348791586830,0.082
1680726348799282452,0.084
1680726348806978074,0.097
1680726348814673696,0.112
1680726348822369318,0.11800000000000001
1680726348830064940,0.108
1680726348837760562,0.106
1680726348845456184,0.129
1680726348853151806,0.14200000000000002
1680726348860847428,0.14200000000000002
1680726348868543050,0.15
1680726348876238672,0.165
1680726348883934294,0.169
1680726348891629916,0.161
1680726348899325538,0.14
1680726348907021160,0.091
1680726348914716782,0.046
1680726348922412404,0.044
1680726348930108026,0.065
1680726348937803648,0.074
1680726348945499270,0.07
1680726348953194892,0.08
1680726348960890514,0.08
1680726348968586136,0.033
1680726348976281758,0.0
1680726348983977380,0.025
1680726348991673002,0.057
1680726348999368624,0.067
1680726349007064246,0.082
1680726349014759868,0.106
1680726349022455490,0.099
1680726349030151112,0.065
1680726349037846734,0.059000000000000004
1680726349045542356,0.089
1680726349053237978,0.112
1680726349060933600,0.101
1680726349068629222,0.091
1680726349076324844,0.108
1680726349084020466,0.10400000000000001
1680726349091716088,0.059000000000000004
1680726349099411710,0.078
1680726349107107332,0.337
1680726349114802978,0.8320000000000001,70
1680726349122498600,1.195
1680726349130194222,0.862
1680726349137889844,-0.097
1680726349145585466,-0.622
1680726349153281088,-0.34400000000000003
1680726349160976710,-0.127
1680726349168672332,-0.212
1680726349176367954,-0.214
1680726349184063576,-0.176
1680726349191759198,-0.197
1680726349199454820,-0.203
1680726349207150442,-0.20600000000000002
1680726349214846064,-0.225
1680726349222541686,-0.214
1680726349230237308,-0.18
1680726349237932930,-0.176
1680726349245628552,-0.189,,974
1680726349253324174,-0.178
1680726349261019796,-0.146
1680726349268715418,-0.131
1680726349276411040,-0.116
1680726349284106662,-0.089
1680726349291802284,-0.07200000000000001
1680726349299497906,-0.065
1680726349307193528,-0.046
1680726349314889150,-0.008
1680726349322584772,0.027
1680726349330280394,0.048
1680726349337976016,0.061
1680726349345671638,0.084
1680726349353367260,0.116
1680726349361062882,0.125
1680726349368758504,0.127
1680726349376454126,0.14
1680726349384149748,0.14
1680726349391845370,0.123
1680726349399540992,0.091
1680726349407236614,0.046
1680726349414932236,0.027
1680726349422627858,0.031
1680726349430323480,0.023
1680726349438019102,0.025
1680726349445714724,0.038
1680726349453410346,0.008
1680726349461105968,-0.036000000000000004
1680726349468801590,-0.044
1680726349476497212,-0.046
1680726349484192834,-0.065
1680726349491888456,-0.063
1680726349499584078,-0.038
1680726349507279700,-0.025
1680726349514975322,-0.025
1680726349522670944,-0.014
1680726349530366566,0.01
1680726349538062188,0.033
1680726349545757810,0.044
1680726349553453432,0.059000000000000004
1680726349561149054,0.074
1680726349568844676,0.067
1680726349576540298,0.063
1680726349584235920,0.089
1680726349591931542,0.123
1680726349599627164,0.131
1680726349607322786,0.127
1680726349615018408,0.125
1680726349622714030,0.133
1680726349630409652,0.138
1680726349638105274,0.125
1680726349645800896,0.114
1680726349653496518,0.116
1680726349661192140,0.112
1680726349668887762,0.10400000000000001
1680726349676583408,0.123,70
1680726349684279448,0.146
1680726349691975488,0.146
1680726349699671528,0.123
1680726349707367568,0.08700000000000001
1680726349715063608,0.063
1680726349722759648,0.033
1680726349730455688,0.002
1680726349738151728,0.016
1680726349745847768,0.042
1680726349753543808,0.027
1680726349761239848,0.021
1680726349768935888,0.048
1680726349776631928,0.07
1680726349784327968,0.076
1680726349792024008,0.089
1680726349799720048,0.11
1680726349807416088,0.11800000000000001
1680726349815112128,0.123
1680726349822808168,0.14
1680726349830504208,0.165
1680726349838200248,0.178
1680726349845896288,0.17200000000000001
1680726349853592328,0.178
1680726349861288368,0.203
1680726349868984408,0.227
1680726349876680448,0.244
1680726349884376488,0.265
1680726349892072528,0.273
1680726349899768568,0.252
1680726349907464608,0.21
1680726349915160648,0.189
1680726349922856688,0.21
1680726349930552728,0.229
1680726349938248768,0.201
1680726349945944808,0.129
1680726349953640848,0.05
1680726349961336888,0.027
1680726349969032928,0.05
1680726349976728968,0.057
1680726349984425008,0.038
1680726349992121048,0.006
1680726349999817088,0.002
1680726350007513128,0.023
1680726350015209168,0.019
1680726350022905208,0.029
1680726350030601248,0.23700000000000002
1680726350038297288,0.728
1680726350045993328,1.172
1680726350053689368,0.9400000000000001
1680726350061385408,-0.036000000000000004
1680726350069081448,-0.675
1680726350076777488,-0.38
1680726350084473528,-0.08
1680726350092169568,-0.218
1680726350099865608,-0.28600000000000003
1680726350107561648,-0.233
1680726350115257688,-0.246
1680726350122953728,-0.257
1680726350130649768,-0.218
1680726350138345808,-0.195
1680726350146041848,-0.191,,902
1680726350153737888,-0.163
1680726350161433928,-0.135
1680726350169129968,-0.133
1680726350176826008,-0.125
1680726350184522048,-0.095
1680726350192218088,-0.084
1680726350199914128,-0.089
1680726350207610168,-0.05
1680726350215306208,0.016
1680726350223002248,0.044
1680726350230698288,0.038
1680726350238394356,0.053
1680726350246089908,0.08
1680726350253785460,0.078
1680726350261481012,0.023
1680726350269176564,-0.038
1680726350276872116,-0.033
1680726350284567668,-0.006
1680726350292263220,-0.014
1680726350299958772,-0.023
1680726350307654324,-0.014
1680726350315349876,-0.01
1680726350323045428,-0.016
1680726350330740980,-0.008
1680726350338436532,0.019
1680726350346132084,0.036000000000000004
1680726350353827636,0.029
1680726350361523188,0.027
1680726350369218740,0.042
1680726350376914292,0.04
1680726350384609844,0.027
1680726350392305396,0.025
1680726350400000948,0.029
1680726350407696500,0.008
1680726350415392052,-0.033
1680726350423087604,-0.048
1680726350430783156,-0.023
1680726350438478708,-0.027
1680726350446174260,-0.063
1680726350453869812,-0.061
1680726350461565364,-0.025
1680726350469260916,-0.012
1680726350476956468,-0.006
1680726350484652020,0.014
1680726350492347572,0.023
1680726350500043124,0.025
1680726350507738676,0.036000000000000004
1680726350515434228,0.057
1680726350523129780,0.076
1680726350530825332,0.078
1680726350538520884,0.07200000000000001
1680726350546216436,0.08
1680726350553911988,0.106
1680726350561607540,0.112
1680726350569303092,0.116
1680726350576998644,0.133
1680726350584694196,0.14200000000000002
1680726350592389748,0.133
1680726350600085300,0.14200000000000002
1680726350607780852,0.167
1680726350615476404,0.184
1680726350623171956,0.182
1680726350630867508,0.18
1680726350638563060,0.189
1680726350646258612,0.201
1680726350653954164,0.20600000000000002
1680726350661649716,0.216
1680726350669345268,0.229
1680726350677040820,0.231
1680726350684736372,0.216
1680726350692431924,0.195
1680726350700127476,0.195
1680726350707823028,0.20800000000000002
1680726350715518580,0.201
1680726350723214132,0.193
1680726350730909684,0.203
1680726350738605236,0.214
1680726350746300788,0.214
1680726350753996340,0.223
1680726350761691892,0.23700000000000002
1680726350769387444,0.231
1680726350777082996,0.218
1680726350784778548,0.229
1680726350792474100,0.25
1680726350800169702,0.254,69
1680726350807865394,0.248
1680726350815561086,0.248
1680726350823256778,0.254
1680726350830952470,0.254
1680726350838648162,0.257
1680726350846343854,0.269
1680726350854039546,0.273
1680726350861735238,0.223
1680726350869430930,0.161
1680726350877126622,0.163
1680726350884822314,0.186
1680726350892518006,0.17200000000000001
1680726350900213698,0.152
1680726350907909390,0.161
1680726350915605082,0.161
1680726350923300774,0.125
1680726350930996466,0.08
1680726350938692158,0.065
1680726350946387850,0.044
1680726350954083542,-0.012
1680726350961779234,-0.046
1680726350969474926,-0.046
1680726350977170618,-0.061
1680726350984866310,-0.08
1680726350992562002,-0.074
1680726351000257694,-0.07
1680726351007953386,-0.08700000000000001
1680726351015649078,-0.131
1680726351023344770,-0.14200000000000002
1680726351031040462,0.029
1680726351038736154,0.47100000000000003
1680726351046431846,0.9430000000000001
1680726351054127538,0.906
1680726351061823230,0.095
1680726351069518922,-0.6920000000000001
1680726351077214614,-0.554
1680726351084910306,-0.14400000000000002
1680726351092605998,-0.21
1680726351100301690,-0.314
1680726351107997382,-0.22
1680726351115693074,-0.189
1680726351123388766,-0.20600000000000002
1680726351131084458,-0.176,,981
1680726351138780150,-0.163
1680726351146475842,-0.161
1680726351154171534,-0.127
1680726351161867226,-0.106
1680726351169562918,-0.101
1680726351177258610,-0.108
1680726351184954302,-0.138
1680726351192649994,-0.157
1680726351200345686,-0.131
1680726351208041378,-0.097
1680726351215737070,-0.078
1680726351223432762,-0.065
1680726351231128454,-0.059000000000000004
1680726351238824146,-0.04
1680726351246519838,-0.021
1680726351254215530,-0.012
1680726351261911222,0.002
1680726351269606914,0.029
1680726351277302606,0.033
1680726351284998298,0.027
1680726351292693990,0.042
1680726351300389682,0.065
1680726351308085374,0.074
1680726351315781066,0.065
1680726351323476758,0.057
1680726351331172450,0.063
1680726351338868142,0.078
1680726351346563834,0.084
1680726351354259526,0.10400000000000001
1680726351361955218,0.129
1680726351369650840,0.125
1680726351377346462,0.101
1680726351385042084,0.099
1680726351392737706,0.108
1680726351400433328,0.10400000000000001
1680726351408128950,0.089
1680726351415824572,0.076
1680726351423520194,0.027
1680726351431215816,-0.065
1680726351438911438,-0.11800000000000001
1680726351446607060,-0.095
1680726351454302682,-0.08
1680726351461998304,-0.099
1680726351469693926,-0.097
1680726351477389548,-0.07
1680726351485085170,-0.05
1680726351492780792,-0.044
1680726351500476414,-0.025
1680726351508172036,-0.012
1680726351515867658,-0.008
1680726351523563280,-0.004
1680726351531258902,0.006
1680726351538954524,0.027
1680726351546650146,0.04
1680726351554345768,0.033
1680726351562041390,0.042
1680726351569737012,0.07
1680726351577432634,0.08
1680726351585128256,0.082
1680726351592823878,0.091
1680726351600519500,0.099
1680726351608215122,0.106
1680726351615910744,0.114
1680726351623606366,0.131
1680726351631301988,0.155
1680726351638997610,0.163
1680726351646693232,0.148
