ts,red,ir,green
1680726357535068,129366.0,160045.0,11014.0
1680726357545069,129387.0,160059.0,10993.0
1680726357556069,129396.0,160023.0,11032.0
1680726357566069,129410.0,160033.0,11032.0
1680726357575069,129404.0,160087.0,11032.0
1680726357585069,129397.0,160096.0,11045.0
1680726357596068,129473.0,160077.0,11028.0
1680726357606068,129510.0,160067.0,11064.0
1680726357615069,129510.0,160081.0,11046.0
1680726357625069,129559.0,160156.0,11054.0
1680726357636068,129562.0,160147.0,11003.0
1680726357646068,129570.0,160103.0,11055.0
1680726357655068,129575.0,160171.0,11055.0
1680726357665068,129638.0,160189.0,11066.0
1680726357676068,129626.0,160192.0,11035.0
1680726357686068,129672.0,160202.0,11073.0
1680726357696068,129703.0,160251.0,11073.0
1680726357707068,129728.0,160194.0,11085.0
1680726357715068,129666.0,160120.0,11076.0
1680726357726069,129461.0,159992.0,11044.0
1680726357735069,129154.0,159782.0,10979.0
1680726357745069,128632.0,159518.0,10878.0
1680726357756069,127922.0,159100.0,10754.0
1680726357765069,127131.0,158628.0,10626.0
1680726357776069,126286.0,158192.0,10482.0
1680726357785069,125616.0,157820.0,10338.0
1680726357795069,125065.0,157529.0,10242.0
1680726357806069,124724.0,157394.0,10198.0
1680726357817068,124639.0,157406.0,10215.0
1680726357825068,124758.0,157497.0,10294.0
1680726357836068,124989.0,157687.0,10304.0
1680726357845068,125413.0,157931.0,10351.0
1680726357856068,125806.0,158133.0,10419.0
1680726357865068,126169.0,158452.0,10501.0
1680726357875068,126587.0,158641.0,10542.0
1680726357886068,126949.0,158850.0,10600.0
1680726357895068,127253.0,158997.0,10657.0
1680726357905069,127524.0,159230.0,10703.0
1680726357915069,127777.0,159339.0,10711.0
1680726357925069,128002.0,159432.0,10750.0
1680726357936069,128227.0,159615.0,10803.0
1680726357945069,128420.0,159774.0,10858.0
1680726357957069,128611.0,159840.0,10886.0
1680726357965069,128752.0,159909.0,10918.0
1680726357976069,128863.0,159976.0,10945.0
1680726357985069,128968.0,159999.0,10919.0
1680726357995069,128959.0,159984.0,10939.0
1680726358006069,128926.0,160013.0,10930.0
1680726358015069,128852.0,159964.0,10919.0
1680726358026069,128721.0,159885.0,10893.0
1680726358035069,128617.0,159819.0,10877.0
1680726358045069,128454.0,159696.0,10841.0
1680726358056069,128295.0,159674.0,10846.0
1680726358065069,128129.0,159532.0,10801.0
1680726358075069,128057.0,159536.0,10779.0
1680726358086069,127990.0,159492.0,10729.0
1680726358095069,127947.0,159484.0,10764.0
1680726358106069,127914.0,159484.0,10739.0
1680726358117069,127920.0,159539.0,10757.0
1680726358127069,127967.0,159486.0,10787.0
1680726358135069,128004.0,159534.0,10794.0
1680726358146068,128110.0,159574.0,10717.0
1680726358155068,128175.0,159643.0,10777.0
1680726358165068,128267.0,159708.0,10823.0
1680726358175068,128364.0,159777.0,10846.0
1680726358185068,128396.0,159818.0,10854.0
1680726358195068,128532.0,159850.0,10847.0
1680726358205068,128611.0,159866.0,10889.0
1680726358215068,128719.0,159982.0,10885.0
1680726358226068,128725.0,160026.0,10844.0
1680726358236068,128798.0,160041.0,10898.0
1680726358245068,128822.0,160045.0,10897.0
1680726358255068,128844.0,160112.0,10900.0
1680726358265069,128860.0,160110.0,10863.0
1680726358276069,128895.0,160130.0,10879.0
1680726358285069,128913.0,160143.0,10905.0
1680726358295069,128916.0,160131.0,10925.0
1680726358305069,128931.0,160162.0,10941.0
1680726358315069,128903.0,160169.0,10932.0
1680726358325069,128970.0,160196.0,10867.0
1680726358335069,128893.0,160191.0,10934.0
1680726358345069,128913.0,160159.0,10900.0
1680726358356068,128908.0,160184.0,10925.0
1680726358366068,128894.0,160185.0,10917.0
1680726358376068,128807.0,160105.0,10895.0
1680726358387068,128771.0,160141.0,10890.0
1680726358396068,128737.0,160143.0,10914.0
1680726358404068,128704.0,160118.0,10860.0
1680726358415068,128666.0,160093.0,10877.0
1680726358426068,128655.0,160094.0,10858.0
1680726358435068,128622.0,160069.0,10873.0
1680726358445069,128595.0,160090.0,10872.0
1680726358455069,128520.0,160115.0,10854.0
1680726358465069,128469.0,160088.0,10852.0
1680726358476069,128376.0,160090.0,10827.0
1680726358486069,128297.0,160109.0,10797.0
1680726358495069,128258.0,160049.0,10814.0
1680726358505069,128224.0,159993.0,10828.0
1680726358516069,128200.0,160054.0,10802.0
1680726358525069,128196.0,160086.0,10807.0
1680726358535069,128187.0,160085.0,10811.0
1680726358545069,128231.0,160117.0,10774.0
1680726358555069,128261.0,160145.0,10811.0
1680726358566069,128270.0,160179.0,10812.0
1680726358575069,128259.0,160189.0,10820.0
1680726358585069,128311.0,160211.0,10838.0
1680726358595069,128393.0,160236.0,10825.0
1680726358605069,128458.0,160280.0,10855.0
1680726358615069,128524.0,160295.0,10854.0
1680726358625069,128559.0,160369.0,10835.0
1680726358636068,128573.0,160390.0,10865.0
1680726358647068,128617.0,160393.0,10873.0
1680726358654068,128604.0,160428.0,10876.0
1680726358665068,128640.0,160413.0,10843.0
1680726358676068,128561.0,160331.0,10871.0
1680726358685068,128340.0,160191.0,10819.0
1680726358695068,127890.0,159841.0,10738.0
1680726358704068,127260.0,159517.0,10616.0
1680726358715068,126460.0,159022.0,10446.0
1680726358726068,125580.0,158508.0,10317.0
1680726358735068,124767.0,158053.0,10199.0
1680726358745068,124100.0,157690.0,10097.0
1680726358755068,123692.0,157469.0,10038.0
1680726358765068,123539.0,157394.0,10003.0
1680726358776068,123585.0,157472.0,10019.0
1680726358786068,123866.0,157651.0,10075.0
1680726358797068,124202.0,157899.0,10166.0
1680726358805069,124556.0,158144.0,10209.0
1680726358815069,125039.0,158450.0,10273.0
1680726358825069,125471.0,158713.0,10347.0
1680726358835069,125873.0,158910.0,10397.0
1680726358845069,126259.0,159176.0,10471.0
1680726358855069,126574.0,159378.0,10530.0
1680726358865069,126959.0,159550.0,10545.0
1680726358875069,127226.0,159734.0,10625.0
1680726358885069,127534.0,159839.0,10678.0
1680726358895069,127773.0,160013.0,10724.0
1680726358904069,128038.0,160144.0,10754.0
1680726358915068,128164.0,160266.0,10744.0
1680726358925068,128310.0,160348.0,10793.0
1680726358936068,128397.0,160401.0,10813.0
1680726358946068,128439.0,160386.0,10824.0
1680726358954068,128405.0,160333.0,10830.0
1680726358965068,128385.0,160290.0,10811.0
1680726358975068,128279.0,160179.0,10789.0
1680726358985069,128114.0,160151.0,10773.0
1680726358995069,127984.0,160057.0,10701.0
1680726359005069,127786.0,159915.0,10701.0
1680726359015069,127587.0,159799.0,10675.0
1680726359026069,127448.0,159689.0,10660.0
1680726359034068,127302.0,159702.0,10621.0
1680726359045068,127256.0,159610.0,10598.0
1680726359055068,127236.0,159618.0,10589.0
1680726359065068,127199.0,159608.0,10608.0
1680726359076068,127184.0,159624.0,10598.0
1680726359086068,127215.0,159635.0,10619.0
1680726359097068,127270.0,159689.0,10651.0
1680726359105068,127268.0,159688.0,10647.0
1680726359115068,127394.0,159673.0,10651.0
1680726359124068,127436.0,159782.0,10665.0
1680726359135068,127542.0,159840.0,10631.0
1680726359145068,127617.0,159851.0,10699.0
1680726359154068,127708.0,159935.0,10710.0
1680726359165069,127750.0,159965.0,10719.0
1680726359174069,127793.0,159972.0,10729.0
1680726359185069,127861.0,160016.0,10716.0
1680726359195069,127910.0,160031.0,10738.0
1680726359205069,127952.0,160019.0,10736.0
1680726359216069,127987.0,160067.0,10740.0
1680726359225069,127978.0,160116.0,10762.0
1680726359235069,128075.0,160098.0,10723.0
1680726359245069,128085.0,160088.0,10774.0
1680726359255069,128118.0,160115.0,10773.0
1680726359265069,128135.0,160104.0,10786.0
1680726359275069,128136.0,160125.0,10785.0
1680726359284069,128133.0,160101.0,10782.0
1680726359295069,128144.0,160077.0,10781.0
1680726359305069,128148.0,160051.0,10783.0
1680726359315069,128127.0,160089.0,10782.0
1680726359324069,128113.0,160072.0,10787.0
1680726359335069,128156.0,160051.0,10775.0
1680726359345069,128139.0,160012.0,10789.0
1680726359355069,128097.0,160038.0,10785.0
1680726359364069,128108.0,160027.0,10778.0
1680726359375069,128098.0,160028.0,10740.0
1680726359385069,128098.0,159937.0,10781.0
1680726359395069,128084.0,159969.0,10783.0
1680726359404069,128112.0,159976.0,10782.0
1680726359415068,128086.0,159963.0,10750.0
1680726359425068,128049.0,160003.0,10769.0
1680726359436068,128096.0,160031.0,10775.0
1680726359446068,128117.0,159957.0,10782.0
1680726359454068,128122.0,159955.0,10802.0
1680726359465068,128108.0,159954.0,10798.0
1680726359475068,128146.0,159961.0,10793.0
1680726359485068,128208.0,159967.0,10795.0
1680726359495068,128216.0,159957.0,10807.0
1680726359504068,128222.0,159968.0,10809.0
1680726359515068,128214.0,160002.0,10806.0
1680726359526069,128271.0,159992.0,10816.0
1680726359534068,128243.0,159960.0,10810.0
1680726359545068,128292.0,160005.0,10827.0
1680726359555068,128347.0,160025.0,10830.0
1680726359566068,128296.0,160094.0,10818.0
1680726359577068,128351.0,160065.0,10822.0
1680726359585068,128375.0,160070.0,10834.0
1680726359595068,128431.0,160201.0,10800.0
1680726359605068,128457.0,160288.0,10841.0
1680726359614068,128522.0,160361.0,10846.0
1680726359624068,128537.0,160413.0,10852.0
1680726359635068,128584.0,160412.0,10837.0
1680726359645068,128467.0,160306.0,10821.0
1680726359654068,128167.0,160167.0,10756.0
1680726359664068,127685.0,159924.0,10683.0
1680726359675068,127107.0,159562.0,10555.0
1680726359685068,126379.0,159048.0,10437.0
1680726359694068,125557.0,158627.0,10299.0
1680726359705069,124857.0,158211.0,10162.0
1680726359716069,124266.0,157945.0,10090.0
1680726359726069,123925.0,157745.0,10042.0
1680726359736069,123868.0,157709.0,10039.0
1680726359745069,123984.0,157772.0,10096.0
1680726359754069,124272.0,158038.0,10114.0
1680726359765069,124624.0,158265.0,10187.0
1680726359775069,125057.0,158549.0,10239.0
1680726359784069,125490.0,158810.0,10322.0
1680726359795069,125931.0,159073.0,10355.0
1680726359805069,126302.0,159272.0,10455.0
1680726359815069,126640.0,159504.0,10513.0
1680726359824069,126885.0,159646.0,10572.0
1680726359835069,127240.0,159766.0,10614.0
1680726359844069,127522.0,159972.0,10659.0
1680726359855069,127743.0,160100.0,10668.0
1680726359866068,128002.0,160233.0,10717.0
1680726359874068,128201.0,160283.0,10777.0
1680726359885069,128350.0,160394.0,10791.0
1680726359895069,128398.0,160438.0,10814.0
1680726359904069,128463.0,160411.0,10835.0
1680726359915068,128508.0,160379.0,10816.0
1680726359924069,128438.0,160275.0,10808.0
1680726359935068,128330.0,160295.0,10784.0
1680726359944069,128181.0,160140.0,10724.0
1680726359954069,128028.0,160026.0,10748.0
1680726359965068,127880.0,159934.0,10702.0
1680726359974069,127704.0,159815.0,10691.0
1680726359985068,127533.0,159722.0,10650.0
1680726359996068,127431.0,159648.0,10616.0
1680726360004068,127325.0,159541.0,10614.0
1680726360015068,127275.0,159569.0,10611.0
1680726360025068,127230.0,159535.0,10583.0
1680726360034068,127238.0,159574.0,10613.0
1680726360045068,127291.0,159577.0,10625.0
1680726360054068,127314.0,159595.0,10633.0
1680726360065069,127411.0,159630.0,10619.0
1680726360075069,127489.0,159692.0,10660.0
1680726360084069,127530.0,159728.0,10670.0
1680726360095069,127620.0,159785.0,10682.0
1680726360104069,127675.0,159828.0,10685.0
1680726360114069,127740.0,159803.0,10666.0
1680726360125069,127805.0,159886.0,10712.0
1680726360134069,127913.0,159940.0,10718.0
1680726360145069,127929.0,159979.0,10695.0
1680726360155068,127991.0,160012.0,10733.0
1680726360165068,128013.0,160085.0,10749.0
1680726360176068,128092.0,160052.0,10755.0
1680726360186068,128148.0,160055.0,10759.0
1680726360196068,128171.0,160098.0,10804.0
1680726360205068,128208.0,160112.0,10762.0
1680726360214069,128201.0,160076.0,10779.0
1680726360225068,128207.0,160142.0,10786.0
1680726360235068,128172.0,160106.0,10780.0
1680726360244069,128222.0,160120.0,10776.0
1680726360255069,128208.0,160116.0,10776.0
1680726360264069,128221.0,160095.0,10788.0
1680726360275069,128204.0,160141.0,10784.0
1680726360285069,128230.0,160149.0,10751.0
1680726360294069,128255.0,160121.0,10785.0
1680726360305069,128249.0,160164.0,10764.0
1680726360315069,128272.0,160169.0,10773.0
1680726360325069,128254.0,160174.0,10748.0
1680726360336068,128234.0,160204.0,10779.0
1680726360346068,128271.0,160175.0,10816.0
1680726360357068,128305.0,160200.0,10804.0
1680726360364068,128318.0,160160.0,10796.0
1680726360374068,128338.0,160203.0,10796.0
1680726360385068,128284.0,160190.0,10813.0
1680726360395068,128379.0,160204.0,10801.0
1680726360404068,128388.0,160169.0,10796.0
1680726360414068,128346.0,160246.0,10800.0
1680726360424069,128409.0,160229.0,10766.0
1680726360435068,128401.0,160234.0,10819.0
1680726360444069,128420.0,160217.0,10815.0
1680726360454069,128450.0,160271.0,10803.0
1680726360464069,128541.0,160302.0,10834.0
1680726360476069,128519.0,160306.0,10819.0
1680726360485069,128566.0,160322.0,10826.0
1680726360494069,128569.0,160344.0,10858.0
1680726360505069,128623.0,160370.0,10848.0
1680726360514069,128657.0,160380.0,10845.0
1680726360525069,128661.0,160458.0,10864.0
1680726360534069,128748.0,160452.0,10869.0
1680726360544069,128804.0,160422.0,10885.0
1680726360555069,128839.0,160517.0,10880.0
1680726360565069,128847.0,160498.0,10855.0
1680726360574069,128770.0,160449.0,10866.0
1680726360585069,128613.0,160308.0,10821.0
1680726360594069,128220.0,160025.0,10755.0
1680726360605069,127632.0,159695.0,10625.0
1680726360615069,126889.0,159237.0,10522.0
1680726360626068,126039.0,158723.0,10418.0
1680726360634068,125153.0,158204.0,10243.0
1680726360645068,124449.0,157784.0,10119.0
1680726360654068,123962.0,157534.0,10048.0
1680726360664068,123685.0,157391.0,9997.0
1680726360674068,123659.0,157439.0,9997.0
1680726360684068,123834.0,157605.0,10028.0
1680726360694068,124159.0,157822.0,10100.0
1680726360704068,124584.0,158049.0,10176.0
1680726360714068,125030.0,158411.0,10239.0
1680726360724068,125491.0,158641.0,10295.0
1680726360735068,125921.0,158942.0,10392.0
1680726360745068,126338.0,159159.0,10453.0
1680726360755068,126619.0,159378.0,10499.0
1680726360766068,126855.0,159529.0,10546.0
1680726360775068,127130.0,159655.0,10572.0
1680726360784069,127338.0,159756.0,10618.0
1680726360794069,127563.0,159942.0,10655.0
1680726360805069,127765.0,160064.0,10688.0
1680726360815069,127983.0,160161.0,10698.0
1680726360824069,128144.0,160248.0,10746.0
1680726360834069,128243.0,160317.0,10766.0
1680726360844069,128316.0,160345.0,10781.0
1680726360855069,128336.0,160325.0,10784.0
1680726360864069,128310.0,160321.0,10748.0
1680726360874069,128200.0,160250.0,10752.0
1680726360885069,128028.0,160147.0,10699.0
1680726360895069,127860.0,160074.0,10693.0
1680726360905068,127657.0,159960.0,10652.0
1680726360915068,127480.0,159827.0,10621.0
1680726360926068,127286.0,159736.0,10640.0
1680726360937068,127200.0,159638.0,10564.0
1680726360944068,127085.0,159602.0,10566.0
1680726360954068,127033.0,159567.0,10562.0
1680726360964069,126971.0,159590.0,10567.0
1680726360974069,127002.0,159574.0,10534.0
1680726360985069,127019.0,159598.0,10540.0
1680726360994069,127053.0,159589.0,10557.0
1680726361004069,127098.0,159683.0,10564.0
1680726361015069,127162.0,159715.0,10548.0
1680726361024069,127220.0,159686.0,10594.0
1680726361034069,127286.0,159810.0,10598.0
1680726361045069,127343.0,159878.0,10597.0
1680726361055069,127389.0,159943.0,10623.0
1680726361066069,127489.0,159927.0,10631.0
1680726361074068,127565.0,159949.0,10639.0
1680726361084068,127606.0,160042.0,10654.0
1680726361095068,127647.0,160054.0,10659.0
1680726361104068,127726.0,160116.0,10675.0
1680726361114068,127756.0,160105.0,10680.0
1680726361124068,127764.0,160152.0,10700.0
1680726361134068,127854.0,160164.0,10691.0
1680726361145069,127881.0,160151.0,10708.0
1680726361154069,127880.0,160186.0,10703.0
1680726361164069,127938.0,160204.0,10708.0
1680726361174069,127989.0,160248.0,10723.0
1680726361185069,127981.0,160247.0,10671.0
1680726361195069,127985.0,160268.0,10712.0
1680726361204069,127979.0,160243.0,10717.0
1680726361214069,127971.0,160249.0,10726.0
1680726361224069,127970.0,160246.0,10734.0
1680726361235069,127964.0,160237.0,10707.0
1680726361244069,127987.0,160261.0,10716.0
1680726361254069,127939.0,160245.0,10705.0
1680726361264069,127967.0,160259.0,10708.0
1680726361275069,127943.0,160238.0,10698.0
1680726361284069,127973.0,160197.0,10716.0
1680726361294069,127958.0,160256.0,10691.0
1680726361305069,127993.0,160292.0,10710.0
1680726361315069,127991.0,160315.0,10718.0
1680726361326069,128020.0,160276.0,10722.0
1680726361334069,128024.0,160302.0,10719.0
1680726361344069,128053.0,160295.0,10738.0
1680726361354069,128065.0,160358.0,10739.0
1680726361364069,128035.0,160355.0,10746.0
1680726361374069,128114.0,160349.0,10750.0
1680726361384069,128140.0,160301.0,10735.0
1680726361395069,128152.0,160354.0,10750.0
1680726361403068,128110.0,160395.0,10758.0
1680726361414068,128173.0,160396.0,10736.0
1680726361424068,128198.0,160433.0,10763.0
1680726361435068,128207.0,160435.0,10755.0
1680726361444068,128211.0,160483.0,10762.0
1680726361456068,128233.0,160445.0,10758.0
1680726361464068,128248.0,160459.0,10769.0
1680726361474068,128268.0,160466.0,10776.0
1680726361484068,128257.0,160510.0,10778.0
1680726361494068,128330.0,160510.0,10781.0
1680726361504069,128343.0,160481.0,10788.0
1680726361514069,128310.0,160546.0,10778.0
1680726361525069,128382.0,160595.0,10787.0
1680726361533069,128403.0,160548.0,10762.0
1680726361544068,128381.0,160607.0,10768.0
1680726361555068,128399.0,160566.0,10783.0
1680726361565068,128312.0,160542.0,10761.0
1680726361576068,128039.0,160333.0,10716.0
1680726361584068,127583.0,159982.0,10633.0
1680726361594068,126904.0,159590.0,10525.0
1680726361605068,126056.0,159051.0,10359.0
1680726361613068,125151.0,158502.0,10217.0
1680726361624068,124232.0,157959.0,10066.0
1680726361634068,123523.0,157569.0,9958.0
1680726361644068,123045.0,157307.0,9862.0
1680726361654068,122799.0,157190.0,9860.0
1680726361664068,122801.0,157225.0,9871.0
1680726361675068,123027.0,157455.0,9901.0
1680726361686069,123357.0,157674.0,9956.0
1680726361695069,123827.0,157985.0,10029.0
1680726361704069,124291.0,158260.0,10121.0
1680726361714069,124750.0,158542.0,10195.0
1680726361724069,125179.0,158845.0,10260.0
1680726361735069,125548.0,159041.0,10330.0
1680726361744069,125931.0,159283.0,10376.0
1680726361754069,126232.0,159422.0,10407.0
1680726361764069,126510.0,159563.0,10480.0
1680726361774069,126777.0,159757.0,10514.0
1680726361784069,127009.0,159876.0,10536.0
1680726361794069,127257.0,159968.0,10598.0
1680726361804069,127465.0,160128.0,10626.0
1680726361814069,127639.0,160232.0,10653.0
1680726361825069,127680.0,160308.0,10635.0
1680726361836068,127778.0,160299.0,10691.0
1680726361844068,127754.0,160230.0,10671.0
1680726361854068,127699.0,160262.0,10664.0
1680726361864069,127613.0,160161.0,10616.0
1680726361874069,127468.0,160042.0,10619.0
1680726361884069,127320.0,159929.0,10598.0
1680726361894069,127143.0,159851.0,10545.0
1680726361904069,126938.0,159746.0,10543.0
1680726361913069,126796.0,159649.0,10517.0
1680726361924069,126699.0,159593.0,10481.0
1680726361934069,126633.0,159562.0,10486.0
1680726361944069,126566.0,159490.0,10462.0
1680726361954069,126522.0,159517.0,10458.0
1680726361964069,126462.0,159525.0,10458.0
1680726361975068,126533.0,159573.0,10463.0
1680726361985068,126579.0,159535.0,10466.0
1680726361993068,126636.0,159620.0,10476.0
1680726362004068,126662.0,159677.0,10498.0
1680726362014068,126794.0,159734.0,10514.0
1680726362024068,126892.0,159725.0,10528.0
1680726362034068,126976.0,159866.0,10537.0
1680726362044069,127074.0,159912.0,10534.0
1680726362054069,127164.0,159948.0,10570.0
1680726362065069,127240.0,159994.0,10595.0
1680726362073068,127305.0,160084.0,10593.0
1680726362084068,127320.0,160134.0,10609.0
1680726362094068,127405.0,160138.0,10614.0
1680726362104068,127458.0,160161.0,10603.0
1680726362115068,127430.0,160179.0,10575.0
1680726362123068,127411.0,160195.0,10616.0
1680726362134068,127474.0,160175.0,10600.0
1680726362144068,127470.0,160169.0,10624.0
1680726362153068,127474.0,160212.0,10627.0
1680726362164068,127464.0,160214.0,10595.0
1680726362174068,127496.0,160230.0,10623.0
1680726362184068,127443.0,160171.0,10622.0
1680726362194068,127481.0,160196.0,10623.0
1680726362204068,127486.0,160169.0,10613.0
1680726362214068,127513.0,160197.0,10619.0
1680726362224069,127473.0,160195.0,10573.0
1680726362235069,127440.0,160214.0,10615.0
1680726362244069,127433.0,160213.0,10617.0
1680726362254069,127470.0,160156.0,10589.0
1680726362264069,127467.0,160173.0,10628.0
1680726362275069,127452.0,160170.0,10615.0
1680726362283069,127436.0,160178.0,10613.0
1680726362294068,127430.0,160194.0,10629.0
1680726362304068,127473.0,160198.0,10596.0
1680726362314068,127479.0,160168.0,10628.0
1680726362324068,127517.0,160215.0,10626.0
1680726362333068,127493.0,160245.0,10641.0
1680726362344068,127595.0,160212.0,10591.0
1680726362355068,127646.0,160306.0,10610.0
1680726362363068,127731.0,160353.0,10669.0
1680726362374068,127797.0,160376.0,10646.0
1680726362384068,127833.0,160403.0,10682.0
1680726362395068,127823.0,160471.0,10680.0
1680726362405069,127903.0,160407.0,10694.0
1680726362413069,127910.0,160420.0,10710.0
1680726362424069,127942.0,160438.0,10715.0
1680726362434069,127940.0,160448.0,10719.0
1680726362444069,128015.0,160457.0,10701.0
1680726362454069,128019.0,160452.0,10723.0
1680726362463069,128031.0,160500.0,10716.0
1680726362474069,128062.0,160497.0,10692.0
1680726362484068,128070.0,160493.0,10739.0
1680726362493069,128103.0,160522.0,10738.0
1680726362504068,128143.0,160556.0,10744.0
1680726362514068,128179.0,160539.0,10749.0
1680726362524068,128220.0,160563.0,10748.0
1680726362535068,128209.0,160575.0,10722.0
1680726362543068,128211.0,160597.0,10749.0
1680726362554068,128222.0,160632.0,10723.0
1680726362564068,128223.0,160580.0,10754.0
1680726362573068,128201.0,160559.0,10738.0
1680726362584069,128091.0,160508.0,10741.0
1680726362593069,127855.0,160289.0,10671.0
1680726362604069,127399.0,159990.0,10588.0
1680726362614069,126738.0,159547.0,10492.0
1680726362623069,125905.0,159019.0,10356.0
1680726362634069,125065.0,158543.0,10199.0
1680726362644069,124254.0,158058.0,10038.0
1680726362654069,123603.0,157730.0,9963.0
1680726362665068,123174.0,157438.0,9901.0
1680726362675068,122991.0,157406.0,9880.0
1680726362686068,123073.0,157498.0,9947.0
1680726362694068,123342.0,157712.0,9920.0
1680726362703068,123718.0,157954.0,10015.0
1680726362714068,124160.0,158250.0,10088.0
1680726362724068,124602.0,158546.0,10146.0
1680726362734068,125004.0,158866.0,10225.0
1680726362744068,125416.0,159118.0,10264.0
1680726362753068,125790.0,159375.0,10328.0
1680726362764069,126161.0,159589.0,10397.0
1680726362774069,126411.0,159765.0,10443.0
1680726362783069,126710.0,159933.0,10483.0
1680726362794069,126964.0,160098.0,10512.0
1680726362804069,127213.0,160293.0,10545.0
1680726362815069,127406.0,160331.0,10579.0
1680726362823068,127595.0,160452.0,10615.0
1680726362834068,127728.0,160546.0,10633.0
1680726362844068,127823.0,160589.0,10634.0
1680726362854068,127873.0,160577.0,10663.0
1680726362863068,127872.0,160569.0,10664.0
1680726362873068,127772.0,160501.0,10646.0
1680726362884068,127714.0,160412.0,10620.0
1680726362894068,127550.0,160306.0,10589.0
1680726362903068,127357.0,160226.0,10557.0
1680726362913068,127192.0,160106.0,10511.0
1680726362924068,127005.0,159983.0,10500.0
1680726362934068,126857.0,159886.0,10481.0
1680726362944069,126735.0,159800.0,10473.0
1680726362954069,126668.0,159768.0,10419.0
1680726362965068,126548.0,159778.0,10438.0
1680726362973068,126564.0,159718.0,10450.0
1680726362984068,126586.0,159705.0,10430.0
1680726362993068,126588.0,159688.0,10439.0
1680726363003068,126634.0,159793.0,10451.0
1680726363014068,126695.0,159823.0,10424.0
1680726363024068,126755.0,159844.0,10481.0
1680726363033068,126839.0,159935.0,10492.0
1680726363043068,126902.0,159990.0,10508.0
1680726363054068,127040.0,160039.0,10520.0
1680726363064068,127142.0,160017.0,10550.0
1680726363073068,127274.0,160106.0,10565.0
1680726363083068,127340.0,160182.0,10594.0
1680726363094068,127508.0,160205.0,10585.0
1680726363104068,127651.0,160311.0,10600.0
1680726363113068,127769.0,160365.0,10645.0
1680726363124069,127827.0,160388.0,10612.0
1680726363135069,127864.0,160432.0,10665.0
1680726363146068,127886.0,160421.0,10707.0
1680726363155068,127956.0,160404.0,10670.0
1680726363163068,127969.0,160397.0,10686.0
1680726363174068,127996.0,160458.0,10675.0
1680726363183068,127967.0,160417.0,10671.0
1680726363194068,128018.0,160424.0,10675.0
1680726363203068,128027.0,160363.0,10704.0
1680726363213068,128048.0,160429.0,10691.0
1680726363224068,128051.0,160427.0,10668.0
1680726363234068,128043.0,160428.0,10692.0
1680726363243068,128022.0,160428.0,10704.0
1680726363253068,128073.0,160435.0,10702.0
1680726363264068,128082.0,160440.0,10683.0
1680726363274068,128120.0,160445.0,10709.0
1680726363284068,128111.0,160455.0,10665.0
1680726363295068,128122.0,160454.0,10702.0
1680726363305069,128175.0,160436.0,10721.0
1680726363316069,128185.0,160420.0,10738.0
1680726363323068,128181.0,160396.0,10718.0
1680726363333068,128178.0,160417.0,10719.0
1680726363343068,128154.0,160467.0,10711.0
1680726363354068,128190.0,160459.0,10684.0
1680726363363068,128178.0,160441.0,10728.0
1680726363373068,128227.0,160486.0,10725.0
1680726363383068,128236.0,160485.0,10711.0
1680726363393068,128282.0,160499.0,10742.0
1680726363403068,128323.0,160519.0,10733.0
1680726363413068,128377.0,160512.0,10753.0
1680726363424068,128412.0,160581.0,10753.0
1680726363435068,128444.0,160568.0,10762.0
1680726363444068,128434.0,160610.0,10763.0
1680726363453068,128499.0,160627.0,10769.0
1680726363464068,128508.0,160590.0,10781.0
1680726363473068,128520.0,160661.0,10760.0
1680726363484069,128542.0,160694.0,10749.0
1680726363493069,128568.0,160670.0,10787.0
1680726363503069,128608.0,160715.0,10806.0
1680726363514069,128631.0,160702.0,10807.0
1680726363523069,128649.0,160698.0,10803.0
1680726363533069,128638.0,160714.0,10809.0
1680726363543069,128631.0,160687.0,10783.0
1680726363553069,128533.0,160622.0,10764.0
1680726363564069,128338.0,160427.0,10735.0
1680726363573069,127947.0,160207.0,10648.0
1680726363583069,127359.0,159797.0,10540.0
1680726363594069,126644.0,159394.0,10442.0
1680726363604069,125914.0,158918.0,10329.0
1680726363615069,125128.0,158429.0,10185.0
1680726363623068,124527.0,158144.0,10110.0
1680726363633068,124220.0,157918.0,10032.0
1680726363644068,124065.0,157865.0,10041.0
1680726363653068,124095.0,157920.0,10052.0
1680726363663069,124276.0,158147.0,10087.0
1680726363673069,124651.0,158340.0,10112.0
1680726363684069,124992.0,158587.0,10206.0
1680726363693069,125433.0,158850.0,10275.0
1680726363703069,125841.0,159130.0,10300.0
1680726363713069,126215.0,159315.0,10402.0
1680726363723069,126552.0,159550.0,10452.0
1680726363734068,126851.0,159717.0,10498.0
1680726363744068,127115.0,159891.0,10503.0
1680726363755068,127282.0,160020.0,10561.0
1680726363766068,127468.0,160130.0,10613.0
1680726363773068,127628.0,160251.0,10617.0
1680726363783068,127794.0,160391.0,10670.0
1680726363794068,127989.0,160455.0,10667.0
1680726363803068,128104.0,160480.0,10707.0
1680726363814068,128181.0,160546.0,10713.0
1680726363823068,128184.0,160518.0,10716.0
1680726363833068,128183.0,160479.0,10722.0
1680726363844069,128105.0,160392.0,10707.0
1680726363853069,128001.0,160329.0,10685.0
1680726363863069,127859.0,160172.0,10666.0
1680726363873069,127710.0,160106.0,10644.0
1680726363883069,127588.0,160034.0,10626.0
1680726363894069,127438.0,159926.0,10562.0
1680726363903069,127341.0,159874.0,10573.0
1680726363915069,127214.0,159822.0,10557.0
1680726363925069,127212.0,159738.0,10570.0
1680726363933069,127192.0,159672.0,10555.0
1680726363944069,127208.0,159696.0,10565.0
1680726363952068,127229.0,159765.0,10578.0
1680726363963068,127358.0,159780.0,10550.0
1680726363974068,127402.0,159844.0,10594.0
1680726363983068,127484.0,159890.0,10614.0
1680726363993068,127559.0,159927.0,10617.0
1680726364003068,127646.0,159995.0,10635.0
1680726364013068,127659.0,160001.0,10646.0
1680726364024069,127784.0,160057.0,10666.0
1680726364033069,127861.0,160132.0,10678.0
1680726364043069,127926.0,160166.0,10645.0
1680726364054069,127980.0,160206.0,10684.0
1680726364064069,128059.0,160211.0,10696.0
1680726364072069,128058.0,160234.0,10705.0
1680726364083068,128161.0,160261.0,10711.0
1680726364093068,128192.0,160292.0,10730.0
1680726364103068,128225.0,160334.0,10735.0
1680726364113068,128220.0,160337.0,10725.0
1680726364123068,128252.0,160343.0,10709.0
1680726364133068,128264.0,160338.0,10738.0
1680726364144068,128276.0,160342.0,10745.0
1680726364152068,128222.0,160344.0,10746.0
1680726364163068,128285.0,160306.0,10719.0
1680726364174068,128308.0,160350.0,10715.0
1680726364185068,128290.0,160286.0,10739.0
1680726364194068,128284.0,160350.0,10767.0
1680726364202069,128285.0,160331.0,10722.0
1680726364213069,128280.0,160314.0,10734.0
1680726364224069,128270.0,160328.0,10745.0
1680726364233069,128248.0,160242.0,10736.0
1680726364243069,128254.0,160334.0,10748.0
1680726364253069,128207.0,160312.0,10750.0
1680726364263069,128276.0,160319.0,10720.0
1680726364274068,128282.0,160314.0,10740.0
1680726364282068,128282.0,160254.0,10744.0
1680726364293068,128266.0,160318.0,10759.0
1680726364304068,128286.0,160303.0,10732.0
1680726364313068,128253.0,160284.0,10753.0
1680726364323068,128302.0,160332.0,10744.0
1680726364333068,128328.0,160320.0,10742.0
1680726364343068,128349.0,160345.0,10756.0
1680726364354068,128339.0,160352.0,10737.0
1680726364363068,128373.0,160355.0,10754.0
1680726364374068,128389.0,160366.0,10754.0
1680726364384069,128386.0,160340.0,10762.0
1680726364394069,128380.0,160387.0,10767.0
1680726364404069,128388.0,160356.0,10770.0
1680726364415068,128431.0,160375.0,10768.0
1680726364425068,128472.0,160350.0,10780.0
1680726364433068,128497.0,160351.0,10782.0
1680726364444068,128477.0,160393.0,10797.0
1680726364453068,128521.0,160398.0,10771.0
1680726364463068,128523.0,160385.0,10805.0
1680726364473068,128550.0,160445.0,10787.0
1680726364484068,128543.0,160440.0,10795.0
1680726364492068,128597.0,160444.0,10806.0
1680726364503068,128601.0,160418.0,10800.0
1680726364513068,128571.0,160448.0,10804.0
1680726364523068,128562.0,160407.0,10786.0
1680726364533068,128382.0,160225.0,10747.0
1680726364543068,128041.0,160012.0,10684.0
1680726364553068,127422.0,159652.0,10548.0
1680726364564069,126622.0,159192.0,10446.0
1680726364574069,125852.0,158711.0,10312.0
1680726364585069,125018.0,158151.0,10189.0
1680726364593068,124307.0,157689.0,10064.0
1680726364603068,123836.0,157449.0,10018.0
1680726364612069,123620.0,157419.0,9973.0
1680726364623068,123611.0,157438.0,9939.0
1680726364633068,123779.0,157579.0,10010.0
1680726364643068,124107.0,157792.0,10029.0
1680726364653068,124508.0,158044.0,10132.0
1680726364663068,124943.0,158260.0,10196.0
1680726364674068,125355.0,158546.0,10262.0
1680726364685068,125737.0,158840.0,10320.0
1680726364694068,126097.0,159046.0,10384.0
1680726364703068,126398.0,159215.0,10464.0
1680726364713068,126674.0,159406.0,10491.0
1680726364723068,126928.0,159533.0,10528.0
1680726364733068,127173.0,159684.0,10529.0
1680726364743069,127397.0,159755.0,10573.0
1680726364752069,127541.0,159912.0,10636.0
1680726364763069,127738.0,160001.0,10669.0
1680726364773069,127925.0,160064.0,10693.0
1680726364782069,128008.0,160143.0,10682.0
1680726364793069,128088.0,160134.0,10722.0
1680726364803069,128058.0,160115.0,10721.0
1680726364813068,128059.0,160065.0,10694.0
1680726364822069,127970.0,160060.0,10683.0
1680726364833068,127858.0,159919.0,10650.0
1680726364843068,127708.0,159875.0,10631.0
1680726364853068,127574.0,159778.0,10605.0
1680726364862069,127385.0,159682.0,10546.0
1680726364873068,127208.0,159616.0,10559.0
1680726364884068,127142.0,159558.0,10552.0
1680726364894068,127059.0,159433.0,10535.0
1680726364904068,127011.0,159454.0,10529.0
1680726364913068,126989.0,159429.0,10557.0
1680726364923069,127007.0,159416.0,10540.0
1680726364933069,127042.0,159438.0,10542.0
1680726364943069,127087.0,159470.0,10558.0
1680726364952069,127109.0,159515.0,10561.0
1680726364963069,127222.0,159575.0,10528.0
1680726364973069,127271.0,159610.0,10588.0
1680726364983069,127348.0,159650.0,10594.0
1680726364993069,127425.0,159713.0,10606.0
1680726365003069,127498.0,159756.0,10608.0
1680726365014068,127562.0,159824.0,10622.0
1680726365024068,127587.0,159842.0,10631.0
1680726365032068,127719.0,159868.0,10646.0
1680726365043068,127785.0,159888.0,10654.0
1680726365052068,127850.0,159973.0,10666.0
1680726365063068,127892.0,159973.0,10644.0
1680726365073068,127903.0,160011.0,10695.0
1680726365083068,127923.0,160004.0,10693.0
1680726365093068,127924.0,160020.0,10701.0
1680726365103069,127909.0,160017.0,10696.0
1680726365112069,127962.0,160040.0,10705.0
1680726365123069,127980.0,160046.0,10685.0
1680726365133069,128002.0,160078.0,10703.0
1680726365143069,128015.0,160082.0,10691.0
1680726365153069,128029.0,160117.0,10700.0
1680726365163069,128044.0,160093.0,10703.0
1680726365172069,128025.0,160111.0,10721.0
1680726365183069,128054.0,160074.0,10669.0
1680726365194069,128024.0,160062.0,10712.0
1680726365202068,128036.0,160012.0,10703.0
1680726365213068,128020.0,160088.0,10707.0
1680726365223068,128032.0,160072.0,10675.0
1680726365233068,128001.0,160069.0,10708.0
1680726365242068,128046.0,160075.0,10710.0
1680726365252068,128091.0,160106.0,10714.0
1680726365263068,128039.0,160104.0,10698.0
1680726365273068,128091.0,160112.0,10693.0
1680726365284069,128104.0,160149.0,10711.0
1680726365295069,128112.0,160155.0,10752.0
1680726365302069,128120.0,160152.0,10724.0
1680726365313068,128122.0,160136.0,10709.0
1680726365323068,128127.0,160139.0,10708.0
1680726365332069,128145.0,160152.0,10732.0
1680726365342069,128162.0,160152.0,10739.0
1680726365353068,128207.0,160150.0,10702.0
1680726365362069,128231.0,160151.0,10752.0
1680726365372069,128260.0,160185.0,10754.0
1680726365383068,128262.0,160232.0,10762.0
1680726365393068,128309.0,160185.0,10738.0
1680726365402068,128321.0,160149.0,10765.0
1680726365413068,128309.0,160204.0,10757.0
1680726365424068,128307.0,160206.0,10760.0
1680726365435068,128350.0,160193.0,10765.0
1680726365444068,128381.0,160203.0,10799.0
1680726365452068,128409.0,160173.0,10789.0
1680726365463069,128445.0,160245.0,10787.0
1680726365472069,128447.0,160252.0,10799.0
1680726365483069,128455.0,160261.0,10813.0
1680726365492069,128503.0,160225.0,10798.0
1680726365502069,128440.0,160182.0,10745.0
1680726365513069,128199.0,159988.0,10741.0
1680726365523069,127807.0,159781.0,10667.0
1680726365532069,127191.0,159372.0,10555.0
1680726365543069,126459.0,158888.0,10443.0
1680726365552069,125616.0,158375.0,10305.0
1680726365563068,124793.0,157879.0,10155.0
1680726365573068,124137.0,157495.0,10039.0
1680726365582069,123624.0,157247.0,9984.0
1680726365593068,123389.0,157151.0,9922.0
1680726365604068,123406.0,157189.0,9946.0
1680726365612068,123515.0,157315.0,10025.0
1680726365623068,123856.0,157522.0,10049.0
1680726365632068,124236.0,157750.0,10100.0
1680726365643069,124639.0,158079.0,10182.0
1680726365652069,125025.0,158334.0,10238.0
1680726365662069,125442.0,158576.0,10310.0
1680726365673069,125838.0,158784.0,10365.0
1680726365682069,126166.0,158979.0,10420.0
1680726365693069,126433.0,159179.0,10456.0
1680726365702069,126675.0,159317.0,10486.0
1680726365712069,126936.0,159442.0,10539.0
1680726365723069,127162.0,159578.0,10576.0
1680726365733069,127392.0,159721.0,10610.0
1680726365744068,127577.0,159827.0,10613.0
1680726365752068,127741.0,159894.0,10695.0
1680726365763068,127870.0,159968.0,10712.0
1680726365773068,127976.0,160004.0,10722.0
1680726365782068,128003.0,159975.0,10712.0
1680726365793068,127967.0,160012.0,10727.0
1680726365802068,127918.0,159950.0,10694.0
1680726365813068,127813.0,159875.0,10649.0
1680726365823069,127652.0,159737.0,10659.0
1680726365832069,127510.0,159640.0,10630.0
1680726365843069,127334.0,159547.0,10608.0
1680726365853069,127189.0,159485.0,10584.0
1680726365862069,127084.0,159412.0,10569.0
1680726365873069,127050.0,159373.0,10552.0
1680726365883069,126917.0,159375.0,10536.0
1680726365893069,126928.0,159351.0,10531.0
1680726365903069,126911.0,159406.0,10538.0
1680726365913069,126996.0,159363.0,10536.0
1680726365922069,127028.0,159351.0,10561.0
1680726365933069,127088.0,159460.0,10564.0
1680726365943069,127157.0,159529.0,10539.0
1680726365952069,127249.0,159547.0,10591.0
1680726365962069,127349.0,159614.0,10617.0
1680726365972069,127403.0,159661.0,10623.0
1680726365983069,127528.0,159723.0,10626.0
1680726365992069,127588.0,159728.0,10651.0
1680726366002069,127693.0,159845.0,10661.0
1680726366013069,127675.0,159864.0,10635.0
1680726366023069,127739.0,159922.0,10658.0
1680726366034068,127830.0,159982.0,10679.0
1680726366044068,127869.0,159940.0,10711.0
1680726366052068,127905.0,160017.0,10695.0
1680726366063068,127907.0,160037.0,10675.0
1680726366072068,127957.0,160042.0,10711.0
1680726366082068,127977.0,160041.0,10709.0
1680726366092068,128000.0,160103.0,10713.0
1680726366103068,128038.0,160083.0,10699.0
1680726366112068,128058.0,160055.0,10727.0
1680726366122068,128068.0,160131.0,10717.0
1680726366133068,128065.0,160111.0,10693.0
1680726366143068,128062.0,160053.0,10716.0
1680726366152068,128031.0,160152.0,10697.0
1680726366164068,128032.0,160181.0,10716.0
1680726366174068,128028.0,160095.0,10742.0
1680726366182069,127966.0,160137.0,10729.0
1680726366193069,128017.0,160123.0,10714.0
1680726366202069,128002.0,160111.0,10716.0
1680726366212069,128018.0,160076.0,10678.0
1680726366223069,127978.0,160091.0,10708.0
1680726366232069,127967.0,160074.0,10699.0
1680726366242069,127938.0,160119.0,10715.0
1680726366252069,127956.0,160094.0,10715.0
1680726366262069,127923.0,160117.0,10710.0
1680726366273069,127989.0,160118.0,10698.0
1680726366282069,128023.0,160102.0,10720.0
1680726366292069,128058.0,160188.0,10714.0
1680726366303069,128098.0,160190.0,10712.0
1680726366312069,128137.0,160158.0,10736.0
1680726366322069,128150.0,160255.0,10704.0
1680726366333068,128184.0,160270.0,10731.0
1680726366343068,128200.0,160323.0,10733.0
1680726366354068,128265.0,160295.0,10754.0
1680726366362069,128301.0,160309.0,10759.0
1680726366372069,128336.0,160359.0,10772.0
1680726366382068,128390.0,160358.0,10789.0
1680726366393068,128389.0,160364.0,10773.0
1680726366402068,128419.0,160368.0,10777.0
1680726366412068,128396.0,160352.0,10773.0
1680726366423068,128409.0,160408.0,10771.0
1680726366432068,128398.0,160375.0,10778.0
1680726366443068,128415.0,160430.0,10784.0
1680726366452068,128426.0,160432.0,10752.0
1680726366463068,128451.0,160506.0,10774.0
1680726366474068,128439.0,160438.0,10782.0
1680726366482068,128387.0,160399.0,10774.0
1680726366492068,128171.0,160238.0,10725.0
1680726366503068,127821.0,159978.0,10660.0
1680726366512068,127242.0,159611.0,10563.0
1680726366523068,126490.0,159145.0,10432.0
1680726366531068,125632.0,158666.0,10298.0
1680726366542069,124856.0,158150.0,10125.0
1680726366552069,124123.0,157794.0,10059.0
1680726366563068,123685.0,157563.0,10008.0
1680726366572069,123540.0,157468.0,9954.0
1680726366582069,123531.0,157523.0,9979.0
1680726366592069,123775.0,157697.0,10013.0
1680726366603068,124101.0,157945.0,10055.0
1680726366613068,124509.0,158227.0,10131.0
1680726366623068,124884.0,158470.0,10204.0
1680726366634068,125336.0,158756.0,10261.0
1680726366643068,125692.0,158949.0,10345.0
1680726366652068,126023.0,159184.0,10370.0
1680726366662068,126325.0,159360.0,10391.0
1680726366672068,126622.0,159511.0,10489.0
1680726366682068,126874.0,159633.0,10521.0
1680726366693068,127079.0,159787.0,10562.0
1680726366702068,127312.0,159904.0,10564.0
1680726366712068,127485.0,159981.0,10614.0
1680726366722069,127624.0,160080.0,10625.0
1680726366733069,127675.0,160157.0,10640.0
1680726366744068,127746.0,160201.0,10660.0
1680726366754068,127773.0,160145.0,10670.0
1680726366762068,127739.0,160108.0,10656.0
1680726366773068,127670.0,160069.0,10643.0
1680726366781068,127489.0,159958.0,10629.0
1680726366792068,127412.0,159846.0,10593.0
1680726366802068,127233.0,159684.0,10561.0
1680726366812068,127010.0,159641.0,10532.0
1680726366822068,126783.0,159516.0,10498.0
1680726366832068,126663.0,159430.0,10480.0
1680726366842068,126531.0,159284.0,10439.0
1680726366853068,126449.0,159293.0,10444.0
1680726366861068,126459.0,159274.0,10442.0
1680726366873068,126420.0,159288.0,10391.0
1680726366882068,126457.0,159299.0,10442.0
1680726366892068,126550.0,159337.0,10428.0
1680726366902069,126607.0,159367.0,10478.0
1680726366912069,126705.0,159414.0,10483.0
1680726366922069,126799.0,159474.0,10505.0
1680726366932069,126849.0,159516.0,10515.0
1680726366942069,126922.0,159591.0,10537.0
1680726366952069,127078.0,159632.0,10523.0
1680726366962069,127164.0,159637.0,10564.0
1680726366972069,127267.0,159755.0,10584.0
1680726366982069,127413.0,159809.0,10597.0
1680726366993069,127507.0,159859.0,10580.0
1680726367003069,127590.0,159894.0,10620.0
1680726367014068,127641.0,159915.0,10643.0
1680726367023069,127660.0,159950.0,10656.0
1680726367031068,127633.0,159938.0,10643.0
1680726367042068,127618.0,159977.0,10645.0
1680726367052068,127642.0,159953.0,10645.0
1680726367062068,127659.0,159902.0,10645.0
1680726367072068,127677.0,159974.0,10643.0
1680726367082069,127672.0,159955.0,10616.0
1680726367092069,127696.0,159935.0,10644.0
1680726367103068,127730.0,159976.0,10662.0
1680726367111068,127774.0,159990.0,10654.0
1680726367123068,127749.0,160003.0,10607.0
1680726367133068,127707.0,160024.0,10642.0
1680726367144068,127729.0,159973.0,10660.0
1680726367154068,127702.0,159947.0,10641.0
1680726367161068,127702.0,159890.0,10654.0
1680726367172068,127704.0,159974.0,10645.0
1680726367183068,127687.0,159934.0,10632.0
1680726367192068,127719.0,159924.0,10653.0
1680726367202068,127741.0,159935.0,10662.0
1680726367211068,127744.0,159961.0,10663.0
1680726367222068,127770.0,159964.0,10671.0
1680726367232068,127843.0,159975.0,10662.0
1680726367241068,127829.0,159963.0,10663.0
1680726367252068,127818.0,159947.0,10658.0
1680726367262069,127770.0,159968.0,10665.0
1680726367272069,127795.0,159968.0,10672.0
1680726367281069,127766.0,159984.0,10674.0
1680726367292069,127847.0,159978.0,10672.0
1680726367302069,127875.0,160023.0,10678.0
1680726367312069,127967.0,160058.0,10686.0
1680726367322069,127991.0,160089.0,10669.0
1680726367332069,128051.0,160123.0,10693.0
1680726367343068,128039.0,160182.0,10704.0
1680726367352069,128076.0,160140.0,10701.0
1680726367362069,128067.0,160177.0,10702.0
1680726367373068,127967.0,160054.0,10682.0
1680726367383068,127783.0,159954.0,10647.0
1680726367394068,127418.0,159695.0,10617.0
1680726367402068,126878.0,159356.0,10485.0
1680726367411068,126182.0,158912.0,10365.0
1680726367422068,125376.0,158440.0,10255.0
1680726367432068,124604.0,157940.0,10085.0
1680726367442069,123861.0,157506.0,10002.0
1680726367452069,123333.0,157258.0,9924.0
1680726367461069,123071.0,157094.0,9879.0
1680726367472069,122977.0,157159.0,9866.0
1680726367482069,123049.0,157247.0,9899.0
1680726367491069,123378.0,157445.0,9946.0
1680726367502069,123753.0,157699.0,10003.0
1680726367512069,124186.0,158010.0,10071.0
1680726367522069,124610.0,158289.0,10106.0
1680726367533069,125040.0,158528.0,10195.0
1680726367542069,125394.0,158773.0,10298.0
1680726367552069,125705.0,158926.0,10281.0
1680726367562069,125948.0,159079.0,10353.0
1680726367572069,126149.0,159226.0,10386.0
1680726367581069,126364.0,159353.0,10427.0
1680726367592069,126563.0,159486.0,10457.0
1680726367602069,126792.0,159628.0,10466.0
1680726367611069,126970.0,159718.0,10528.0
1680726367622069,127193.0,159835.0,10567.0
1680726367632069,127346.0,159903.0,10576.0
1680726367642069,127438.0,159950.0,10577.0
1680726367652069,127471.0,159980.0,10593.0
1680726367662069,127422.0,159912.0,10587.0
1680726367671069,127259.0,159830.0,10566.0
1680726367682069,127136.0,159696.0,10523.0
1680726367692069,126923.0,159579.0,10494.0
1680726367701069,126734.0,159500.0,10463.0
1680726367712069,126548.0,159380.0,10421.0
1680726367722069,126407.0,159293.0,10400.0
1680726367732069,126270.0,159211.0,10394.0
1680726367741069,126200.0,159167.0,10395.0
1680726367751069,126152.0,159157.0,10376.0
1680726367762069,126172.0,159156.0,10339.0
1680726367772069,126175.0,159135.0,10387.0
1680726367781069,126208.0,159138.0,10392.0
1680726367791069,126218.0,159173.0,10391.0
1680726367802069,126256.0,159234.0,10385.0
1680726367812069,126330.0,159260.0,10404.0
1680726367822069,126389.0,159340.0,10400.0
1680726367833068,126476.0,159324.0,10429.0
1680726367844068,126569.0,159400.0,10471.0
1680726367852068,126703.0,159482.0,10470.0
1680726367861068,126796.0,159554.0,10489.0
1680726367871068,126901.0,159618.0,10508.0
1680726367881068,127028.0,159646.0,10508.0
1680726367892068,127079.0,159668.0,10516.0
1680726367902068,127111.0,159715.0,10544.0
1680726367911068,127104.0,159747.0,10549.0
1680726367921068,127172.0,159721.0,10550.0
1680726367932068,127209.0,159701.0,10524.0
1680726367942068,127246.0,159759.0,10567.0
1680726367953068,127255.0,159809.0,10550.0
1680726367964068,127304.0,159763.0,10548.0
1680726367971068,127359.0,159753.0,10571.0
1680726367982069,127380.0,159816.0,10577.0
1680726367991069,127395.0,159817.0,10583.0
1680726368001069,127371.0,159800.0,10577.0
1680726368012069,127329.0,159774.0,10540.0
1680726368022069,127281.0,159740.0,10563.0
1680726368031069,127245.0,159727.0,10563.0
1680726368041069,127218.0,159709.0,10556.0
1680726368052069,127190.0,159682.0,10546.0
1680726368062069,127232.0,159673.0,10551.0
1680726368072069,127109.0,159693.0,10537.0
1680726368082069,127183.0,159626.0,10540.0
1680726368093068,127184.0,159580.0,10551.0
1680726368104068,127202.0,159657.0,10587.0
1680726368111068,127198.0,159668.0,10543.0
1680726368121068,127194.0,159647.0,10523.0
1680726368132068,127187.0,159635.0,10547.0
1680726368141068,127179.0,159592.0,10558.0
1680726368152068,127192.0,159666.0,10544.0
1680726368162069,127171.0,159608.0,10550.0
1680726368171069,127221.0,159636.0,10556.0
1680726368182069,127255.0,159636.0,10572.0
1680726368192069,127251.0,159643.0,10582.0
1680726368201069,127334.0,159672.0,10577.0
1680726368212069,127357.0,159691.0,10542.0
1680726368222069,127356.0,159680.0,10588.0
1680726368232069,127294.0,159677.0,10566.0
1680726368243069,127340.0,159731.0,10579.0
1680726368253069,127334.0,159656.0,10604.0
1680726368261068,127403.0,159673.0,10591.0
1680726368272068,127451.0,159742.0,10618.0
1680726368281068,127492.0,159731.0,10626.0
1680726368291068,127562.0,159709.0,10637.0
1680726368302068,127540.0,159615.0,10617.0
1680726368312068,127274.0,159399.0,10558.0
1680726368321068,126840.0,159090.0,10481.0
1680726368331068,126130.0,158712.0,10365.0
1680726368341069,125363.0,158180.0,10194.0
1680726368352069,124529.0,157724.0,10079.0
1680726368362069,123777.0,157284.0,9977.0
1680726368373068,123221.0,156937.0,9890.0
1680726368381068,122947.0,156789.0,9864.0
1680726368392068,122898.0,156830.0,9867.0
1680726368401068,123011.0,156931.0,9892.0
1680726368411068,123394.0,157145.0,9913.0
1680726368422068,123785.0,157393.0,10004.0
1680726368431068,124210.0,157671.0,10084.0
1680726368442068,124597.0,157991.0,10139.0
1680726368451068,125058.0,158207.0,10199.0
1680726368461068,125439.0,158425.0,10271.0
1680726368472068,125780.0,158626.0,10324.0
1680726368481068,126087.0,158843.0,10369.0
1680726368491068,126398.0,158988.0,10381.0
1680726368502068,126672.0,159109.0,10457.0
1680726368511068,126888.0,159240.0,10515.0
1680726368522069,127161.0,159415.0,10552.0
1680726368531069,127373.0,159529.0,10584.0
1680726368541069,127516.0,159600.0,10615.0
1680726368552069,127624.0,159679.0,10616.0
1680726368563068,127664.0,159731.0,10624.0
1680726368572069,127698.0,159716.0,10629.0
1680726368583068,127684.0,159703.0,10614.0
1680726368593068,127625.0,159645.0,10646.0
1680726368601068,127548.0,159621.0,10619.0
1680726368611068,127510.0,159546.0,10572.0
1680726368621068,127417.0,159483.0,10576.0
1680726368631068,127320.0,159426.0,10571.0
1680726368642068,127230.0,159350.0,10557.0
1680726368651068,127108.0,159342.0,10537.0
1680726368661068,127049.0,159279.0,10495.0
1680726368671068,126937.0,159180.0,10502.0
1680726368681068,126867.0,159181.0,10453.0
1680726368692068,126850.0,159161.0,10479.0
1680726368701069,126830.0,159170.0,10486.0
1680726368711069,126843.0,159178.0,10435.0
1680726368722069,126874.0,159171.0,10477.0
1680726368733069,126950.0,159252.0,10495.0
1680726368743069,126996.0,159221.0,10505.0
1680726368751068,127033.0,159227.0,10520.0
1680726368761068,127048.0,159331.0,10508.0
1680726368772068,127009.0,159309.0,10516.0
1680726368781068,127054.0,159331.0,10513.0
1680726368791068,127068.0,159327.0,10525.0
1680726368801068,127051.0,159408.0,10523.0
1680726368811068,127146.0,159392.0,10526.0
1680726368821068,127206.0,159381.0,10550.0
1680726368831068,127260.0,159470.0,10544.0
1680726368841068,127307.0,159510.0,10514.0
1680726368852068,127385.0,159540.0,10549.0
1680726368862068,127413.0,159613.0,10566.0
1680726368873068,127430.0,159531.0,10606.0
1680726368881069,127430.0,159577.0,10574.0
1680726368892068,127396.0,159573.0,10587.0
1680726368901069,127376.0,159567.0,10582.0
1680726368911069,127419.0,159555.0,10561.0
1680726368921069,127433.0,159568.0,10562.0
1680726368931069,127444.0,159534.0,10588.0
1680726368942068,127476.0,159579.0,10591.0
1680726368951069,127526.0,159576.0,10597.0
1680726368961068,127552.0,159567.0,10595.0
1680726368971068,127597.0,159610.0,10598.0
1680726368982068,127543.0,159616.0,10556.0
1680726368992068,127527.0,159617.0,10580.0
1680726369003068,127538.0,159598.0,10589.0
1680726369013068,127539.0,159601.0,10606.0
1680726369021068,127552.0,159585.0,10603.0
1680726369031068,127536.0,159600.0,10612.0
1680726369041068,127610.0,159628.0,10606.0
1680726369051068,127658.0,159620.0,10586.0
1680726369062069,127679.0,159625.0,10621.0
1680726369070068,127700.0,159641.0,10629.0
1680726369081068,127716.0,159661.0,10630.0
1680726369091068,127702.0,159634.0,10632.0
1680726369101068,127713.0,159617.0,10597.0
1680726369111068,127717.0,159671.0,10613.0
1680726369123068,127711.0,159697.0,10622.0
1680726369133068,127766.0,159656.0,10645.0
1680726369141068,127788.0,159636.0,10637.0
1680726369152068,127827.0,159723.0,10658.0
1680726369160068,127856.0,159748.0,10673.0
1680726369171068,127976.0,159726.0,10678.0
1680726369181068,128041.0,159713.0,10682.0
1680726369191068,128081.0,159799.0,10691.0
1680726369201068,128110.0,159824.0,10667.0
1680726369211068,128114.0,159801.0,10694.0
1680726369221068,128097.0,159764.0,10683.0
1680726369231068,128069.0,159843.0,10695.0
1680726369241069,128119.0,159792.0,10673.0
1680726369251069,128067.0,159736.0,10692.0
1680726369261069,128017.0,159630.0,10675.0
1680726369271069,127760.0,159507.0,10618.0
1680726369281069,127334.0,159209.0,10547.0
1680726369291069,126746.0,158864.0,10436.0
1680726369301069,126034.0,158426.0,10320.0
1680726369312069,125248.0,157962.0,10180.0
1680726369321069,124562.0,157598.0,10082.0
1680726369332069,124025.0,157306.0,9994.0
1680726369342069,123745.0,157080.0,9962.0
1680726369353068,123666.0,157134.0,10010.0
1680726369360068,123824.0,157193.0,9970.0
1680726369371068,124102.0,157412.0,10024.0
1680726369381068,124457.0,157583.0,10083.0
1680726369391068,124835.0,157869.0,10151.0
1680726369402068,125203.0,158110.0,10218.0
1680726369411068,125541.0,158320.0,10272.0
1680726369421069,125885.0,158534.0,10317.0
1680726369432068,126149.0,158726.0,10373.0
1680726369441069,126402.0,158878.0,10416.0
1680726369451069,126682.0,159025.0,10457.0
1680726369460069,126949.0,159152.0,10498.0
1680726369471068,127135.0,159276.0,10483.0
1680726369482068,127349.0,159411.0,10557.0
1680726369491068,127533.0,159518.0,10592.0
1680726369501068,127741.0,159563.0,10621.0
1680726369511068,127861.0,159582.0,10637.0
1680726369521068,127908.0,159634.0,10650.0
1680726369530068,127886.0,159662.0,10644.0
1680726369541068,127834.0,159624.0,10612.0
1680726369551068,127723.0,159550.0,10615.0
1680726369561068,127591.0,159433.0,10590.0
1680726369570068,127442.0,159328.0,10571.0
1680726369581068,127297.0,159257.0,10522.0
1680726369592068,127117.0,159187.0,10505.0
1680726369602069,126973.0,159058.0,10485.0
1680726369612069,126856.0,159006.0,10470.0
1680726369621069,126734.0,158961.0,10479.0
1680726369631069,126671.0,158915.0,10430.0
1680726369641069,126613.0,158896.0,10434.0
1680726369651069,126575.0,158911.0,10420.0
1680726369660069,126528.0,158895.0,10445.0
1680726369671069,126605.0,158918.0,10453.0
1680726369681069,126625.0,158939.0,10454.0
1680726369691069,126716.0,158992.0,10471.0
1680726369701069,126856.0,159012.0,10463.0
1680726369710069,126963.0,159029.0,10480.0
1680726369721068,127057.0,159163.0,10511.0
1680726369731068,127084.0,159190.0,10526.0
1680726369740069,127114.0,159203.0,10485.0
1680726369751068,127194.0,159274.0,10497.0
1680726369762068,127238.0,159348.0,10530.0
1680726369772068,127256.0,159336.0,10538.0
1680726369780069,127276.0,159346.0,10542.0
1680726369791069,127369.0,159361.0,10552.0
1680726369801069,127404.0,159373.0,10559.0
1680726369811069,127439.0,159357.0,10581.0
1680726369820069,127467.0,159415.0,10580.0
1680726369830069,127444.0,159448.0,10585.0
1680726369841069,127506.0,159436.0,10564.0
1680726369851069,127510.0,159472.0,10570.0
1680726369860069,127495.0,159436.0,10588.0
1680726369871069,127504.0,159417.0,10573.0
1680726369880069,127522.0,159425.0,10581.0
1680726369891069,127449.0,159408.0,10566.0
1680726369902068,127478.0,159410.0,10555.0
1680726369912068,127473.0,159437.0,10575.0
1680726369923068,127484.0,159371.0,10595.0
1680726369931068,127493.0,159400.0,10577.0
1680726369941068,127506.0,159395.0,10546.0
1680726369951068,127529.0,159411.0,10595.0
1680726369960069,127518.0,159396.0,10592.0
1680726369971068,127484.0,159413.0,10589.0
1680726369981068,127478.0,159397.0,10591.0
1680726369990069,127553.0,159391.0,10583.0
1680726370001068,127545.0,159387.0,10607.0
1680726370010069,127540.0,159455.0,10604.0
1680726370021068,127639.0,159482.0,10605.0
1680726370030068,127701.0,159489.0,10634.0
1680726370041068,127757.0,159480.0,10639.0
1680726370050068,127838.0,159538.0,10630.0
1680726370061068,127867.0,159573.0,10625.0
1680726370071068,127950.0,159580.0,10636.0
1680726370082068,127991.0,159542.0,10663.0
1680726370093068,128028.0,159591.0,10695.0
1680726370101068,128059.0,159630.0,10668.0
1680726370110068,128097.0,159634.0,10664.0
1680726370121068,128147.0,159657.0,10701.0
1680726370130068,128171.0,159660.0,10708.0
1680726370141069,128187.0,159688.0,10722.0
1680726370151069,128282.0,159667.0,10710.0
1680726370160069,128322.0,159703.0,10720.0
1680726370171069,128346.0,159664.0,10722.0
1680726370181069,128339.0,159654.0,10725.0
1680726370191069,128320.0,159683.0,10728.0
1680726370201069,128300.0,159703.0,10710.0
1680726370211068,128290.0,159725.0,10714.0
1680726370222068,128254.0,159646.0,10711.0
1680726370233068,128257.0,159669.0,10716.0
1680726370240068,128276.0,159694.0,10750.0
1680726370251068,128284.0,159652.0,10731.0
1680726370261068,128356.0,159668.0,10739.0
1680726370271068,128367.0,159671.0,10740.0
1680726370280068,128398.0,159695.0,10747.0
1680726370290068,128394.0,159675.0,10745.0
1680726370301068,128367.0,159693.0,10716.0
1680726370311068,128371.0,159678.0,10744.0
1680726370320069,128337.0,159677.0,10742.0
1680726370330069,128207.0,159625.0,10711.0
1680726370341069,128041.0,159444.0,10679.0
1680726370351069,127673.0,159199.0,10580.0
1680726370360069,127123.0,158860.0,10513.0
1680726370372069,126409.0,158427.0,10362.0
1680726370380069,125679.0,157973.0,10280.0
1680726370391069,124977.0,157522.0,10160.0
1680726370401069,124386.0,157204.0,10078.0
1680726370410069,123950.0,157056.0,10014.0
1680726370421069,123773.0,157021.0,9962.0
1680726370430069,123868.0,157058.0,10001.0
1680726370441069,124064.0,157206.0,10038.0
1680726370450069,124378.0,157370.0,10087.0
1680726370460069,124747.0,157652.0,10155.0
1680726370471068,125161.0,157906.0,10187.0
1680726370481068,125566.0,158120.0,10284.0
1680726370490069,125978.0,158359.0,10356.0
1680726370501069,126326.0,158566.0,10402.0
1680726370511069,126616.0,158755.0,10448.0
1680726370522069,126867.0,158877.0,10484.0
1680726370530068,127085.0,158962.0,10525.0
1680726370541068,127264.0,159021.0,10562.0
1680726370550068,127430.0,159146.0,10582.0
1680726370561068,127595.0,159226.0,10607.0
1680726370570068,127780.0,159326.0,10632.0
1680726370580068,127945.0,159371.0,10681.0
1680726370591068,128047.0,159413.0,10699.0
1680726370600068,128106.0,159477.0,10710.0
1680726370610068,128155.0,159429.0,10684.0
1680726370621068,128109.0,159434.0,10704.0
1680726370632068,127972.0,159300.0,10669.0
1680726370642068,127797.0,159240.0,10680.0
1680726370652068,127623.0,159121.0,10588.0
1680726370660068,127466.0,159035.0,10598.0
1680726370670068,127326.0,158971.0,10575.0
1680726370680069,127167.0,158910.0,10555.0
1680726370691069,127119.0,158826.0,10502.0
1680726370700069,127041.0,158793.0,10501.0
1680726370710069,127022.0,158792.0,10530.0
1680726370721068,126998.0,158795.0,10530.0
1680726370730069,126980.0,158798.0,10529.0
1680726370740069,127047.0,158795.0,10503.0
1680726370751068,127078.0,158903.0,10511.0
1680726370761068,127139.0,158961.0,10530.0
1680726370772068,127200.0,158938.0,10542.0
1680726370780068,127276.0,158955.0,10559.0
1680726370790068,127383.0,159040.0,10578.0
1680726370800068,127439.0,159089.0,10591.0
1680726370811068,127529.0,159147.0,10615.0
1680726370820068,127653.0,159166.0,10608.0
1680726370830068,127716.0,159172.0,10637.0
1680726370840068,127736.0,159261.0,10636.0
1680726370851068,127761.0,159269.0,10630.0
1680726370860069,127799.0,159281.0,10656.0
1680726370870069,127811.0,159293.0,10658.0
1680726370880069,127833.0,159257.0,10658.0
1680726370891069,127858.0,159338.0,10661.0
1680726370901069,127910.0,159326.0,10666.0
1680726370912068,127902.0,159356.0,10667.0
1680726370920068,127924.0,159329.0,10644.0
1680726370931068,127940.0,159349.0,10678.0
1680726370941068,127942.0,159336.0,10648.0
1680726370950068,127932.0,159332.0,10674.0
1680726370960068,127914.0,159343.0,10677.0
1680726370971068,127848.0,159338.0,10677.0
1680726370980068,127894.0,159332.0,10652.0
1680726370990068,127873.0,159272.0,10659.0
1680726371000068,127850.0,159335.0,10665.0
1680726371010068,127865.0,159338.0,10634.0
1680726371021068,127873.0,159294.0,10637.0
1680726371030068,127883.0,159241.0,10672.0
1680726371040069,127875.0,159303.0,10663.0
1680726371051069,127862.0,159336.0,10658.0
1680726371061069,127850.0,159360.0,10662.0
1680726371071069,127802.0,159299.0,10652.0
1680726371082069,127818.0,159326.0,10680.0
1680726371091069,127826.0,159308.0,10667.0
1680726371101069,127817.0,159250.0,10654.0
1680726371110069,127773.0,159329.0,10669.0
1680726371120069,127853.0,159323.0,10663.0
1680726371130069,127872.0,159303.0,10665.0
1680726371140069,127888.0,159357.0,10674.0
1680726371151069,127916.0,159361.0,10650.0
1680726371160069,127901.0,159381.0,10670.0
1680726371170069,127909.0,159395.0,10669.0
1680726371180069,127881.0,159350.0,10669.0
1680726371191069,127852.0,159407.0,10658.0
1680726371202068,127858.0,159425.0,10659.0
1680726371212068,127872.0,159366.0,10677.0
1680726371220069,127881.0,159357.0,10683.0
1680726371231068,127870.0,159388.0,10676.0
1680726371239068,127883.0,159372.0,10672.0
1680726371250068,127920.0,159374.0,10671.0
1680726371261068,127888.0,159356.0,10681.0
1680726371270068,127859.0,159342.0,10675.0
1680726371280068,127786.0,159359.0,10672.0
1680726371289068,127753.0,159352.0,10666.0
1680726371300068,127806.0,159321.0,10633.0
1680726371311068,127799.0,159348.0,10668.0
1680726371319068,127850.0,159371.0,10663.0
1680726371331068,127828.0,159376.0,10612.0
1680726371342068,127832.0,159376.0,10660.0
1680726371350068,127872.0,159372.0,10674.0
1680726371360068,127858.0,159363.0,10658.0
1680726371370068,127779.0,159379.0,10666.0
1680726371380068,127732.0,159346.0,10652.0
1680726371391068,127622.0,159220.0,10616.0
1680726371400069,127315.0,158983.0,10562.0
1680726371410069,126833.0,158760.0,10476.0
1680726371420069,126151.0,158381.0,10382.0
1680726371430069,125484.0,157960.0,10224.0
1680726371440069,124772.0,157546.0,10140.0
1680726371450069,124118.0,157140.0,10048.0
1680726371460069,123633.0,156961.0,9948.0
1680726371470069,123361.0,156854.0,9881.0
1680726371481068,123320.0,156884.0,9904.0
1680726371491068,123482.0,157013.0,9953.0
1680726371502068,123767.0,157172.0,10033.0
1680726371511068,124096.0,157395.0,10062.0
1680726371520069,124532.0,157651.0,10117.0
1680726371530068,124922.0,157890.0,10191.0
1680726371540068,125321.0,158125.0,10254.0
1680726371550068,125661.0,158348.0,10309.0
1680726371561068,126009.0,158530.0,10361.0
1680726371569068,126285.0,158644.0,10403.0
1680726371580069,126511.0,158827.0,10447.0
1680726371590069,126721.0,158946.0,10479.0
1680726371600069,126937.0,159040.0,10507.0
1680726371610069,127123.0,159167.0,10553.0
1680726371620069,127290.0,159288.0,10570.0
1680726371631069,127447.0,159354.0,10589.0
1680726371642068,127573.0,159405.0,10615.0
1680726371652068,127659.0,159429.0,10635.0
1680726371659068,127685.0,159410.0,10632.0
1680726371670068,127655.0,159455.0,10619.0
1680726371681068,127588.0,159375.0,10581.0
1680726371690068,127491.0,159305.0,10595.0
1680726371700068,127367.0,159224.0,10580.0
1680726371709068,127165.0,159137.0,10545.0
1680726371720068,127075.0,159066.0,10517.0
1680726371731068,126934.0,158988.0,10499.0
1680726371739068,126823.0,158971.0,10478.0
1680726371750068,126754.0,158919.0,10450.0
1680726371760069,126716.0,158882.0,10475.0
1680726371770069,126740.0,158909.0,10470.0
1680726371780068,126704.0,158922.0,10435.0
1680726371790068,126747.0,158971.0,10471.0
1680726371801068,126788.0,158993.0,10479.0
1680726371812068,126841.0,159021.0,10487.0
1680726371821068,126907.0,159059.0,10526.0
1680726371832068,126999.0,159118.0,10505.0
1680726371840068,127106.0,159176.0,10529.0
1680726371851068,127176.0,159238.0,10549.0
1680726371860068,127268.0,159258.0,10552.0
1680726371870068,127349.0,159336.0,10572.0
1680726371880068,127412.0,159362.0,10591.0
1680726371890068,127504.0,159427.0,10594.0
1680726371900068,127558.0,159403.0,10610.0
1680726371909068,127562.0,159499.0,10618.0
1680726371920068,127645.0,159553.0,10581.0
1680726371930068,127706.0,159545.0,10629.0
1680726371940069,127793.0,159622.0,10648.0
1680726371951069,127771.0,159629.0,10609.0
1680726371961068,127824.0,159581.0,10640.0
1680726371972068,127840.0,159654.0,10677.0
1680726371980068,127854.0,159661.0,10652.0
1680726371989068,127842.0,159681.0,10627.0
1680726372000068,127875.0,159695.0,10662.0
1680726372010068,127851.0,159676.0,10651.0
1680726372020068,127804.0,159677.0,10655.0
1680726372030068,127828.0,159686.0,10641.0
1680726372039068,127786.0,159689.0,10640.0
1680726372050068,127799.0,159690.0,10632.0
1680726372060068,127845.0,159688.0,10645.0
1680726372069068,127785.0,159679.0,10584.0
1680726372081068,127777.0,159680.0,10618.0
1680726372090068,127772.0,159654.0,10626.0
1680726372100068,127751.0,159679.0,10640.0
1680726372110068,127699.0,159666.0,10631.0
1680726372119069,127714.0,159682.0,10624.0
1680726372130069,127682.0,159658.0,10619.0
1680726372140069,127675.0,159648.0,10624.0
1680726372150069,127651.0,159665.0,10624.0
1680726372159069,127649.0,159690.0,10622.0
1680726372170069,127702.0,159670.0,10628.0
1680726372180069,127765.0,159688.0,10630.0
1680726372190069,127782.0,159689.0,10635.0
1680726372200069,127802.0,159742.0,10626.0
1680726372210069,127823.0,159774.0,10632.0
1680726372220069,127831.0,159749.0,10627.0
1680726372231068,127845.0,159804.0,10634.0
1680726372241068,127848.0,159796.0,10647.0
1680726372252068,127826.0,159731.0,10649.0
1680726372260068,127888.0,159737.0,10652.0
1680726372270068,127876.0,159734.0,10648.0
1680726372279068,127843.0,159753.0,10664.0
1680726372289068,127926.0,159736.0,10655.0
1680726372300069,127934.0,159708.0,10663.0
1680726372310069,127863.0,159684.0,10650.0
1680726372319069,127809.0,159696.0,10655.0
1680726372330069,127803.0,159698.0,10611.0
1680726372339069,127792.0,159667.0,10650.0
1680726372350069,127824.0,159723.0,10634.0
1680726372360069,127860.0,159731.0,10638.0
1680726372370069,127879.0,159691.0,10617.0
1680726372381069,127888.0,159692.0,10655.0
1680726372391069,127909.0,159662.0,10651.0
1680726372402068,127876.0,159646.0,10680.0
1680726372409068,127768.0,159607.0,10637.0
1680726372419068,127543.0,159422.0,10565.0
1680726372430068,127086.0,159125.0,10517.0
1680726372440068,126502.0,158790.0,10409.0
1680726372449068,125771.0,158357.0,10267.0
1680726372460068,125018.0,157904.0,10164.0
1680726372469068,124304.0,157504.0,10066.0
1680726372480069,123740.0,157234.0,9979.0
1680726372489069,123447.0,157083.0,9938.0
1680726372499069,123383.0,157070.0,9897.0
1680726372510069,123521.0,157179.0,9945.0
1680726372520069,123767.0,157315.0,9975.0
1680726372529069,124067.0,157543.0,10033.0
1680726372540068,124424.0,157759.0,10083.0
1680726372551068,124773.0,157998.0,10146.0
1680726372561068,125073.0,158191.0,10195.0
1680726372571068,125481.0,158372.0,10256.0
1680726372579068,125758.0,158556.0,10320.0
1680726372589068,126061.0,158680.0,10325.0
1680726372600068,126288.0,158775.0,10397.0
1680726372610068,126488.0,158930.0,10427.0
1680726372619068,126681.0,159019.0,10433.0
1680726372630068,126808.0,159060.0,10483.0
1680726372639068,126913.0,159116.0,10492.0
1680726372650068,127083.0,159255.0,10534.0
1680726372660069,127202.0,159279.0,10536.0
1680726372669069,127309.0,159332.0,10562.0
1680726372680069,127337.0,159387.0,10533.0
1680726372691069,127335.0,159363.0,10562.0
1680726372701069,127327.0,159312.0,10556.0
1680726372712068,127192.0,159257.0,10557.0
1680726372720068,127139.0,159184.0,10511.0
1680726372730068,127007.0,159095.0,10504.0
1680726372739068,126853.0,159000.0,10479.0
1680726372749068,126672.0,158937.0,10464.0
1680726372760068,126592.0,158842.0,10446.0
1680726372770068,126475.0,158741.0,10417.0
1680726372779068,126384.0,158766.0,10405.0
1680726372790068,126269.0,158676.0,10404.0
1680726372799068,126260.0,158653.0,10381.0
1680726372810068,126258.0,158669.0,10360.0
1680726372820068,126246.0,158691.0,10382.0
1680726372831068,126274.0,158693.0,10397.0
1680726372839069,126315.0,158684.0,10372.0
1680726372850069,126375.0,158703.0,10408.0
1680726372860069,126432.0,158726.0,10400.0
1680726372869069,126492.0,158733.0,10421.0
1680726372880069,126558.0,158831.0,10442.0
1680726372889069,126607.0,158822.0,10458.0
1680726372900069,126624.0,158897.0,10463.0
1680726372909069,126729.0,158935.0,10451.0
1680726372919069,126786.0,158956.0,10417.0
1680726372930069,126772.0,158951.0,10479.0
1680726372939069,126806.0,158942.0,10497.0
1680726372949069,126795.0,158989.0,10476.0
1680726372960069,126871.0,158985.0,10492.0
1680726372969069,126857.0,159023.0,10498.0
1680726372980069,126897.0,159013.0,10495.0
1680726372990069,126967.0,159038.0,10503.0
1680726373001068,126903.0,159021.0,10530.0
1680726373012068,126898.0,159022.0,10510.0
1680726373019069,126897.0,158962.0,10499.0
1680726373029069,126893.0,159034.0,10505.0
1680726373039069,126879.0,159008.0,10511.0
1680726373049069,126926.0,158991.0,10481.0
1680726373060068,126926.0,159010.0,10503.0
1680726373069069,126893.0,158989.0,10510.0
1680726373079069,126854.0,158976.0,10505.0
1680726373089069,126857.0,159013.0,10500.0
1680726373100068,126864.0,158979.0,10495.0
1680726373110068,126850.0,158972.0,10495.0
1680726373119068,126838.0,158937.0,10480.0
1680726373129068,126808.0,158971.0,10461.0
1680726373140068,126751.0,158954.0,10467.0
1680726373151068,126732.0,158975.0,10474.0
1680726373161068,126750.0,158945.0,10467.0
1680726373169068,126741.0,158932.0,10458.0
1680726373179068,126707.0,158945.0,10465.0
1680726373190068,126727.0,158934.0,10432.0
1680726373199069,126705.0,158898.0,10466.0
1680726373209069,126701.0,158962.0,10451.0
1680726373219069,126711.0,158962.0,10464.0
1680726373230069,126711.0,158971.0,10465.0
1680726373239069,126684.0,158957.0,10460.0
1680726373249069,126710.0,158924.0,10467.0
1680726373260069,126697.0,158998.0,10474.0
1680726373269069,126741.0,159001.0,10463.0
1680726373279069,126694.0,158996.0,10410.0
1680726373290068,126684.0,159010.0,10448.0
1680726373300068,126673.0,159049.0,10459.0
1680726373311068,126713.0,159003.0,10462.0
1680726373320068,126725.0,158989.0,10458.0
1680726373329069,126733.0,159084.0,10484.0
1680726373340068,126740.0,159044.0,10460.0
1680726373349069,126772.0,159079.0,10486.0
1680726373360068,126756.0,159062.0,10494.0
1680726373368068,126733.0,159072.0,10484.0
1680726373379069,126803.0,159079.0,10462.0
1680726373390069,126813.0,159075.0,10480.0
1680726373399069,126834.0,159084.0,10480.0
1680726373409069,126807.0,159148.0,10490.0
1680726373419069,126864.0,159163.0,10491.0
1680726373429069,126872.0,159105.0,10465.0
1680726373439069,126849.0,159153.0,10491.0
1680726373450069,126748.0,159091.0,10428.0
1680726373460069,126479.0,158909.0,10419.0
1680726373471068,126090.0,158641.0,10337.0
1680726373480069,125454.0,158288.0,10259.0
1680726373488068,124695.0,157872.0,10111.0
1680726373499068,123931.0,157379.0,9935.0
1680726373509068,123140.0,156927.0,9874.0
1680726373519068,122504.0,156630.0,9756.0
1680726373529068,122086.0,156419.0,9675.0
1680726373539068,121915.0,156362.0,9676.0
1680726373549068,121945.0,156420.0,9704.0
1680726373560069,122154.0,156569.0,9733.0
1680726373569069,122464.0,156817.0,9767.0
1680726373580069,122799.0,157076.0,9787.0
1680726373591069,123176.0,157281.0,9884.0
1680726373601069,123517.0,157584.0,9989.0
1680726373611069,123973.0,157782.0,9991.0
1680726373619068,124279.0,157944.0,10058.0
1680726373629068,124559.0,158087.0,10115.0
1680726373639068,124803.0,158299.0,10136.0
1680726373649068,125010.0,158406.0,10136.0
1680726373659068,125159.0,158490.0,10204.0
1680726373669068,125318.0,158586.0,10228.0
1680726373679068,125447.0,158691.0,10253.0
1680726373690068,125620.0,158782.0,10269.0
1680726373698068,125715.0,158810.0,10288.0
1680726373709068,125852.0,158951.0,10292.0
1680726373719068,125928.0,158990.0,10316.0
1680726373729068,125968.0,158969.0,10321.0
1680726373739069,125970.0,159015.0,10318.0
1680726373749069,125944.0,158993.0,10307.0
1680726373759069,125856.0,158947.0,10267.0
1680726373770069,125763.0,158878.0,10282.0
1680726373780068,125638.0,158819.0,10251.0
1680726373790068,125477.0,158720.0,10234.0
1680726373801068,125358.0,158674.0,10210.0
1680726373809068,125213.0,158580.0,10187.0
1680726373819068,125141.0,158535.0,10142.0
1680726373829068,125045.0,158482.0,10166.0
1680726373839068,125005.0,158484.0,10163.0
1680726373849068,124932.0,158481.0,10163.0
1680726373860068,124993.0,158486.0,10160.0
1680726373868068,124959.0,158460.0,10146.0
1680726373879068,125043.0,158544.0,10168.0
1680726373890068,125129.0,158612.0,10151.0
1680726373899068,125214.0,158664.0,10191.0
1680726373910068,125271.0,158716.0,10167.0
1680726373921069,125358.0,158800.0,10210.0
1680726373931069,125450.0,158842.0,10245.0
1680726373939068,125536.0,158823.0,10254.0
1680726373949068,125621.0,158956.0,10258.0
1680726373959068,125724.0,158950.0,10266.0
1680726373969068,125757.0,159048.0,10288.0
1680726373979068,125832.0,159104.0,10269.0
1680726373988068,125899.0,159099.0,10261.0
1680726373999068,125912.0,159109.0,10302.0
1680726374009068,125934.0,159189.0,10300.0
1680726374019068,125965.0,159188.0,10316.0
1680726374029068,125996.0,159239.0,10296.0
1680726374040068,126041.0,159259.0,10319.0
1680726374051068,126003.0,159222.0,10326.0
1680726374059068,125997.0,159299.0,10309.0
1680726374069068,126020.0,159284.0,10290.0
1680726374079068,126012.0,159276.0,10288.0
1680726374089068,126013.0,159274.0,10315.0
1680726374099069,126016.0,159266.0,10324.0
1680726374109069,125980.0,159293.0,10316.0
1680726374119069,125989.0,159300.0,10316.0
1680726374128069,126000.0,159306.0,10319.0
1680726374139069,125994.0,159299.0,10266.0
1680726374149069,126009.0,159286.0,10324.0
1680726374158069,126016.0,159330.0,10314.0
1680726374169069,126046.0,159373.0,10323.0
1680726374179069,126102.0,159363.0,10321.0
1680726374189069,126090.0,159383.0,10280.0
1680726374200069,126049.0,159405.0,10314.0
1680726374209069,126104.0,159424.0,10316.0
1680726374219069,126128.0,159393.0,10327.0
1680726374229069,126148.0,159471.0,10331.0
1680726374238069,126204.0,159504.0,10306.0
1680726374249069,126219.0,159531.0,10350.0
1680726374259069,126236.0,159556.0,10348.0
1680726374269069,126276.0,159617.0,10359.0
1680726374278069,126280.0,159616.0,10339.0
1680726374289069,126340.0,159668.0,10367.0
1680726374298069,126417.0,159723.0,10363.0
1680726374309069,126357.0,159749.0,10361.0
1680726374319069,126419.0,159798.0,10341.0
1680726374330068,126409.0,159803.0,10363.0
1680726374341068,126397.0,159861.0,10394.0
1680726374349068,126443.0,159857.0,10368.0
1680726374359068,126443.0,159842.0,10372.0
1680726374368068,126432.0,159906.0,10371.0
1680726374379068,126534.0,159913.0,10348.0
1680726374389068,126563.0,159946.0,10389.0
1680726374399068,126606.0,160025.0,10381.0
1680726374408068,126655.0,160044.0,10378.0
1680726374419068,126706.0,160101.0,10403.0
1680726374429068,126796.0,160146.0,10424.0
1680726374439068,126804.0,160189.0,10393.0
1680726374450068,126821.0,160224.0,10421.0
1680726374460069,126916.0,160237.0,10430.0
1680726374468068,126931.0,160275.0,10422.0
1680726374479068,126956.0,160267.0,10435.0
1680726374489068,126917.0,160227.0,10430.0
1680726374498068,126784.0,160183.0,10400.0
1680726374509068,126416.0,159966.0,10347.0
1680726374519068,125958.0,159657.0,10265.0
1680726374528068,125268.0,159269.0,10134.0
1680726374539068,124437.0,158838.0,9999.0
1680726374549068,123587.0,158340.0,9851.0
1680726374559068,122805.0,157857.0,9724.0
1680726374569068,122248.0,157625.0,9654.0
1680726374580068,121963.0,157532.0,9617.0
1680726374591068,121916.0,157530.0,9641.0
1680726374598068,122015.0,157659.0,9647.0
1680726374609068,122326.0,157826.0,9686.0
1680726374619068,122668.0,158001.0,9748.0
1680726374628068,123059.0,158343.0,9804.0
1680726374639069,123465.0,158580.0,9838.0
1680726374649069,123804.0,158821.0,9937.0
1680726374658069,124177.0,159027.0,9997.0
1680726374669069,124515.0,159214.0,10029.0
1680726374679069,124762.0,159349.0,10070.0
1680726374689069,124980.0,159496.0,10105.0
1680726374698069,125088.0,159588.0,10129.0
1680726374708069,125274.0,159681.0,10134.0
1680726374719069,125430.0,159782.0,10175.0
1680726374729069,125584.0,159870.0,10193.0
1680726374738069,125688.0,159942.0,10176.0
1680726374749069,125818.0,160008.0,10223.0
1680726374759069,125905.0,160088.0,10243.0
1680726374770069,125948.0,160070.0,10254.0
1680726374779069,125962.0,160093.0,10252.0
1680726374790068,125914.0,160086.0,10282.0
1680726374801068,125870.0,160032.0,10250.0
1680726374808068,125758.0,159939.0,10219.0
1680726374819069,125584.0,159878.0,10208.0
1680726374828069,125466.0,159800.0,10192.0
1680726374839069,125312.0,159733.0,10161.0
1680726374848069,125221.0,159608.0,10128.0
1680726374859068,125111.0,159550.0,10091.0
1680726374868069,125017.0,159467.0,10102.0
1680726374878069,124901.0,159498.0,10082.0
1680726374889068,124903.0,159469.0,10049.0
1680726374899068,124874.0,159466.0,10081.0
1680726374908069,124871.0,159491.0,10081.0
1680726374919068,124887.0,159522.0,10044.0
1680726374930068,124908.0,159522.0,10084.0
1680726374941068,124995.0,159551.0,10091.0
1680726374948068,125071.0,159614.0,10117.0
1680726374958068,125119.0,159624.0,10122.0
1680726374969068,125163.0,159719.0,10139.0
1680726374979068,125276.0,159741.0,10142.0
1680726374988068,125335.0,159738.0,10149.0
1680726374999069,125380.0,159755.0,10169.0
1680726375008069,125442.0,159801.0,10159.0
1680726375019069,125449.0,159803.0,10171.0
1680726375028069,125454.0,159869.0,10183.0
1680726375038069,125515.0,159899.0,10195.0
1680726375049069,125577.0,159901.0,10176.0
1680726375058069,125612.0,159857.0,10200.0
1680726375069069,125666.0,159944.0,10199.0
1680726375079069,125755.0,159956.0,10210.0
1680726375089069,125761.0,160006.0,10226.0
1680726375099069,125783.0,160004.0,10223.0
1680726375110068,125753.0,159993.0,10220.0
1680726375120068,125784.0,159942.0,10219.0
1680726375128068,125777.0,159910.0,10237.0
1680726375139068,125773.0,159974.0,10230.0
1680726375148068,125790.0,159957.0,10208.0
1680726375158068,125830.0,159958.0,10203.0
1680726375169068,125852.0,159957.0,10249.0
1680726375178069,125853.0,159935.0,10243.0
1680726375189069,125826.0,159946.0,10240.0
1680726375198069,125809.0,159960.0,10236.0
1680726375208069,125806.0,159941.0,10236.0
1680726375219069,125833.0,159958.0,10234.0
1680726375228069,125861.0,159943.0,10246.0
1680726375238069,125833.0,159934.0,10231.0
1680726375249069,125861.0,159952.0,10239.0
1680726375259069,125887.0,159996.0,10252.0
1680726375270069,125917.0,159972.0,10251.0
1680726375278068,125968.0,159957.0,10269.0
1680726375288068,125984.0,159950.0,10278.0
1680726375298068,125968.0,159958.0,10278.0
1680726375309068,125975.0,159959.0,10274.0
1680726375319068,126011.0,159979.0,10271.0
1680726375328068,126014.0,159917.0,10265.0
1680726375338068,126008.0,159978.0,10268.0
1680726375348068,126005.0,159979.0,10292.0
1680726375359069,126107.0,159965.0,10269.0
1680726375368069,126147.0,159989.0,10310.0
1680726375378069,126235.0,160015.0,10309.0
1680726375389069,126237.0,160014.0,10286.0
1680726375400069,126280.0,160058.0,10320.0
1680726375408069,126314.0,160008.0,10332.0
1680726375418069,126316.0,160071.0,10329.0
1680726375429068,126328.0,159996.0,10332.0
1680726375438068,126316.0,160066.0,10339.0
1680726375448068,126398.0,160053.0,10310.0
1680726375458068,126437.0,160064.0,10344.0
1680726375468068,126412.0,160058.0,10363.0
1680726375479068,126525.0,160098.0,10368.0
1680726375488068,126552.0,160095.0,10332.0
1680726375498068,126568.0,160035.0,10371.0
1680726375509068,126526.0,160073.0,10336.0
1680726375520068,126398.0,159958.0,10333.0
1680726375529068,126069.0,159769.0,10321.0
1680726375538069,125641.0,159470.0,10202.0
1680726375548069,124973.0,159043.0,10078.0
1680726375559069,124168.0,158621.0,9949.0
1680726375569069,123360.0,158081.0,9826.0
1680726375578069,122651.0,157655.0,9711.0
1680726375588069,122089.0,157436.0,9651.0
1680726375599069,121831.0,157282.0,9573.0
1680726375608069,121713.0,157259.0,9594.0
1680726375618069,121796.0,157316.0,9588.0
1680726375628069,122027.0,157466.0,9651.0
1680726375638069,122345.0,157673.0,9684.0
1680726375649068,122662.0,157930.0,9751.0
1680726375658069,123093.0,158134.0,9791.0
1680726375668069,123468.0,158321.0,9878.0
1680726375678069,123813.0,158605.0,9926.0
1680726375688068,124111.0,158759.0,9952.0
1680726375698068,124389.0,158919.0,10001.0
1680726375708068,124639.0,159037.0,10064.0
1680726375718069,124872.0,159152.0,10093.0
1680726375729069,125021.0,159262.0,10084.0
1680726375738069,125198.0,159362.0,10144.0
1680726375749069,125342.0,159481.0,10172.0
1680726375759069,125509.0,159527.0,10189.0
1680726375770069,125659.0,159594.0,10224.0
1680726375777068,125759.0,159624.0,10256.0
1680726375788068,125807.0,159678.0,10231.0
1680726375798068,125850.0,159672.0,10256.0
1680726375808068,125818.0,159613.0,10238.0
1680726375819068,125744.0,159610.0,10238.0
1680726375828068,125673.0,159541.0,10192.0
1680726375838068,125491.0,159410.0,10193.0
1680726375848068,125383.0,159377.0,10169.0
1680726375859068,125252.0,159275.0,10150.0
1680726375868068,125138.0,159197.0,10136.0
1680726375878068,125029.0,159154.0,10092.0
1680726375889068,124952.0,159107.0,10096.0
1680726375899069,124860.0,159122.0,10090.0
1680726375909069,124813.0,159063.0,10075.0
1680726375920069,124807.0,159033.0,10130.0
1680726375930069,124850.0,159041.0,10097.0
1680726375938068,124889.0,159067.0,10084.0
1680726375948068,124918.0,159065.0,10095.0
1680726375958068,124935.0,159129.0,10109.0
1680726375968068,125022.0,159141.0,10121.0
1680726375978068,125079.0,159243.0,10115.0
1680726375988068,125123.0,159248.0,10107.0
1680726375998068,125224.0,159280.0,10150.0
1680726376008068,125264.0,159331.0,10153.0
1680726376018068,125355.0,159384.0,10177.0
1680726376028068,125454.0,159423.0,10141.0
1680726376040068,125495.0,159460.0,10193.0
1680726376050068,125543.0,159458.0,10219.0
1680726376058068,125593.0,159488.0,10206.0
1680726376069068,125609.0,159478.0,10211.0
1680726376078069,125591.0,159531.0,10222.0
1680726376088069,125660.0,159490.0,10216.0
1680726376098069,125665.0,159503.0,10215.0
1680726376108069,125663.0,159586.0,10226.0
1680726376118069,125708.0,159580.0,10190.0
1680726376128069,125698.0,159591.0,10225.0
1680726376138069,125685.0,159601.0,10225.0
1680726376149068,125623.0,159589.0,10217.0
1680726376157068,125643.0,159605.0,10206.0
1680726376168068,125649.0,159612.0,10181.0
1680726376179068,125622.0,159653.0,10203.0
1680726376189068,125638.0,159645.0,10204.0
1680726376197068,125621.0,159599.0,10206.0
1680726376208068,125639.0,159598.0,10197.0
1680726376218068,125655.0,159570.0,10224.0
1680726376228068,125673.0,159637.0,10209.0
1680726376237068,125687.0,159608.0,10191.0
1680726376248068,125688.0,159613.0,10229.0
1680726376258069,125687.0,159592.0,10226.0
1680726376268069,125670.0,159620.0,10220.0
1680726376278069,125696.0,159621.0,10232.0
1680726376288069,125737.0,159624.0,10228.0
1680726376298069,125766.0,159624.0,10236.0
1680726376308069,125791.0,159625.0,10233.0
1680726376318069,125815.0,159625.0,10248.0
1680726376328069,125825.0,159662.0,10254.0
1680726376339069,125841.0,159702.0,10247.0
1680726376349069,125886.0,159684.0,10250.0
1680726376360068,125904.0,159641.0,10251.0
1680726376368068,125915.0,159719.0,10279.0
1680726376378068,125935.0,159678.0,10241.0
1680726376388068,125938.0,159648.0,10272.0
1680726376398068,125931.0,159684.0,10263.0
1680726376407068,125954.0,159690.0,10258.0
1680726376418068,125946.0,159685.0,10268.0
1680726376428068,125982.0,159682.0,10270.0
1680726376438069,125919.0,159638.0,10265.0
1680726376448069,125970.0,159683.0,10276.0
1680726376457069,125988.0,159662.0,10284.0
1680726376468069,125934.0,159708.0,10258.0
1680726376479069,125979.0,159667.0,10256.0
1680726376487069,125967.0,159670.0,10270.0
1680726376498068,125957.0,159678.0,10286.0
1680726376507068,125931.0,159667.0,10276.0
1680726376518068,126002.0,159660.0,10254.0
1680726376527068,125992.0,159620.0,10276.0
1680726376537068,126002.0,159672.0,10276.0
1680726376548068,126013.0,159675.0,10270.0
1680726376558068,126039.0,159649.0,10293.0
1680726376568068,126040.0,159629.0,10284.0
1680726376577068,126013.0,159618.0,10296.0
1680726376588068,125899.0,159607.0,10257.0
1680726376599068,125752.0,159501.0,10224.0
1680726376609068,125367.0,159190.0,10155.0
1680726376617069,124780.0,158880.0,10061.0
1680726376628069,124070.0,158438.0,9947.0
1680726376637069,123213.0,157946.0,9810.0
1680726376648069,122438.0,157438.0,9673.0
1680726376658069,121735.0,157055.0,9569.0
1680726376667069,121205.0,156756.0,9497.0
1680726376678069,120939.0,156668.0,9451.0
1680726376688068,120861.0,156695.0,9465.0
1680726376697069,121043.0,156799.0,9456.0
1680726376708068,121299.0,156943.0,9535.0
1680726376717069,121670.0,157187.0,9593.0
1680726376728068,122004.0,157422.0,9603.0
1680726376738068,122347.0,157663.0,9690.0
1680726376748068,122761.0,157930.0,9754.0
1680726376759068,123088.0,158050.0,9810.0
1680726376769068,123404.0,158188.0,9860.0
1680726376779068,123677.0,158416.0,9949.0
1680726376790068,123891.0,158516.0,9953.0
1680726376798069,124157.0,158644.0,9987.0
1680726376807069,124323.0,158742.0,9996.0
1680726376818069,124494.0,158832.0,10005.0
1680726376828069,124632.0,158894.0,10062.0
1680726376837069,124778.0,158957.0,10080.0
1680726376848069,124909.0,159082.0,10100.0
1680726376858069,125008.0,159123.0,10094.0
1680726376867069,125049.0,159149.0,10128.0
1680726376878069,125119.0,159154.0,10138.0
1680726376887069,125161.0,159153.0,10131.0
1680726376898069,125076.0,159115.0,10083.0
1680726376909068,125006.0,159067.0,10099.0
1680726376917068,124872.0,158939.0,10092.0
1680726376928068,124730.0,158844.0,10074.0
1680726376937068,124550.0,158800.0,10056.0
1680726376947068,124460.0,158692.0,9999.0
1680726376958068,124327.0,158626.0,10017.0
1680726376967068,124235.0,158599.0,9991.0
1680726376978069,124177.0,158532.0,9962.0
1680726376988069,124148.0,158516.0,9988.0
1680726376997069,124140.0,158481.0,9985.0
1680726377008069,124150.0,158531.0,9952.0
1680726377019069,124165.0,158614.0,9977.0
1680726377029069,124202.0,158564.0,10024.0
1680726377037068,124196.0,158628.0,10008.0
1680726377047068,124262.0,158648.0,10016.0
1680726377058068,124386.0,158694.0,10018.0
1680726377068068,124437.0,158681.0,10031.0
1680726377077068,124512.0,158785.0,10045.0
1680726377088068,124624.0,158826.0,10035.0
1680726377097068,124682.0,158811.0,10066.0
1680726377108068,124758.0,158908.0,10074.0
1680726377117068,124800.0,158941.0,10073.0
1680726377127068,124829.0,158953.0,10070.0
1680726377138068,124872.0,158968.0,10083.0
1680726377148068,124906.0,158946.0,10094.0
1680726377157069,124934.0,159004.0,10099.0
1680726377167069,124994.0,159086.0,10102.0
1680726377178069,124952.0,159047.0,10116.0
1680726377188068,124984.0,159081.0,10117.0
1680726377196068,124975.0,159077.0,10149.0
1680726377207068,125004.0,159070.0,10119.0
1680726377217068,125047.0,159081.0,10127.0
1680726377226068,125009.0,159103.0,10118.0
1680726377236068,125052.0,159102.0,10100.0
1680726377246068,125044.0,159099.0,10135.0
1680726377256068,125049.0,159086.0,10130.0
1680726377267068,125029.0,159142.0,10130.0
1680726377276068,125081.0,159115.0,10125.0
1680726377286068,125090.0,159084.0,10127.0
1680726377297068,125107.0,159152.0,10095.0
1680726377308068,125094.0,159161.0,10136.0
1680726377318068,125163.0,159188.0,10131.0
1680726377326068,125184.0,159156.0,10165.0
1680726377337069,125199.0,159217.0,10143.0
1680726377348069,125176.0,159252.0,10152.0
1680726377357069,125233.0,159287.0,10148.0
1680726377367069,125270.0,159281.0,10125.0
1680726377378069,125300.0,159283.0,10143.0
1680726377387069,125314.0,159302.0,10170.0
1680726377398069,125359.0,159340.0,10183.0
1680726377407069,125385.0,159339.0,10175.0
1680726377417069,125453.0,159399.0,10188.0
1680726377428069,125473.0,159398.0,10168.0
1680726377437069,125484.0,159426.0,10200.0
1680726377447069,125532.0,159468.0,10201.0
1680726377457069,125542.0,159456.0,10201.0
1680726377467069,125520.0,159490.0,10165.0
1680726377478068,125575.0,159533.0,10197.0
1680726377487069,125616.0,159540.0,10200.0
1680726377498068,125603.0,159555.0,10160.0
1680726377509068,125609.0,159586.0,10206.0
1680726377519069,125678.0,159598.0,10219.0
1680726377527068,125690.0,159644.0,10214.0
1680726377537068,125722.0,159661.0,10200.0
1680726377548068,125726.0,159670.0,10220.0
1680726377557068,125758.0,159706.0,10226.0
1680726377568068,125760.0,159766.0,10231.0
1680726377577068,125797.0,159780.0,10214.0
1680726377587068,125866.0,159820.0,10239.0
1680726377598068,125848.0,159803.0,10251.0
1680726377607068,125830.0,159769.0,10238.0
1680726377617068,125727.0,159745.0,10225.0
1680726377628068,125527.0,159612.0,10168.0
1680726377637068,125087.0,159288.0,10104.0
1680726377648068,124483.0,159005.0,9984.0
1680726377657068,123699.0,158532.0,9845.0
1680726377667068,122876.0,158053.0,9744.0
1680726377677068,122149.0,157610.0,9626.0
1680726377687068,121528.0,157279.0,9530.0
1680726377697069,121141.0,157044.0,9466.0
1680726377707069,121005.0,157097.0,9460.0
1680726377718068,121062.0,157217.0,9466.0
1680726377729068,121228.0,157298.0,9495.0
1680726377738068,121509.0,157518.0,9554.0
1680726377749068,121914.0,157773.0,9635.0
1680726377759068,122369.0,158025.0,9687.0
1680726377769068,122755.0,158302.0,9778.0
1680726377779068,123183.0,158564.0,9796.0
1680726377787068,123512.0,158690.0,9858.0
1680726377797068,123790.0,158969.0,9901.0
1680726377807068,124046.0,159091.0,9917.0
1680726377818068,124253.0,159221.0,9940.0
1680726377827068,124437.0,159342.0,9973.0
1680726377837068,124614.0,159423.0,10029.0
1680726377847068,124795.0,159579.0,10046.0
1680726377857068,124976.0,159651.0,10060.0
1680726377867068,125137.0,159718.0,10117.0
1680726377877069,125260.0,159839.0,10117.0
1680726377887069,125353.0,159888.0,10113.0
1680726377898069,125356.0,159899.0,10102.0
1680726377907069,125347.0,159876.0,10144.0
1680726377917069,125298.0,159853.0,10128.0
1680726377927069,125225.0,159801.0,10114.0
1680726377938068,125109.0,159663.0,10078.0
1680726377947069,124928.0,159624.0,10064.0
1680726377958068,124790.0,159565.0,10044.0
1680726377968068,124654.0,159441.0,10012.0
1680726377979068,124527.0,159317.0,9993.0
1680726377987068,124404.0,159325.0,10030.0
1680726377997068,124359.0,159280.0,9948.0
1680726378007068,124298.0,159225.0,9970.0
1680726378017068,124274.0,159271.0,9964.0
1680726378027068,124270.0,159272.0,9930.0
1680726378037068,124322.0,159294.0,9938.0
1680726378047068,124339.0,159339.0,9980.0
1680726378057069,124411.0,159358.0,9987.0
1680726378068069,124384.0,159427.0,9992.0
1680726378076069,124477.0,159469.0,10005.0
1680726378087068,124552.0,159518.0,9973.0
1680726378097068,124660.0,159562.0,9995.0
1680726378108068,124711.0,159621.0,10024.0
1680726378119068,124757.0,159667.0,10030.0
1680726378127068,124742.0,159714.0,10041.0
1680726378137068,124835.0,159701.0,10057.0
1680726378148068,124911.0,159722.0,10059.0
1680726378157068,124941.0,159755.0,10070.0
1680726378167068,124973.0,159785.0,10074.0
1680726378177068,125025.0,159829.0,10081.0
1680726378187068,125031.0,159853.0,10074.0
1680726378197068,125074.0,159865.0,10057.0
1680726378207068,125060.0,159872.0,10081.0
1680726378217068,125115.0,159891.0,10091.0
1680726378228068,125164.0,159938.0,10093.0
1680726378237069,125103.0,159909.0,10076.0
1680726378248068,125134.0,159924.0,10080.0
1680726378259068,125117.0,159919.0,10079.0
1680726378269068,125132.0,159928.0,10112.0
1680726378277068,125100.0,159933.0,10094.0
1680726378287068,125138.0,159923.0,10094.0
1680726378297068,125182.0,159914.0,10105.0
1680726378307068,125223.0,159953.0,10097.0
1680726378318068,125171.0,159941.0,10068.0
1680726378326068,125158.0,159917.0,10096.0
1680726378337068,125155.0,159938.0,10098.0
1680726378348068,125111.0,159931.0,10100.0
1680726378357068,125161.0,159940.0,10090.0
1680726378367068,125145.0,159905.0,10095.0
1680726378376068,125161.0,159963.0,10103.0
1680726378387068,125096.0,159960.0,10052.0
1680726378397068,125139.0,159991.0,10075.0
1680726378408068,125154.0,159992.0,10084.0
1680726378419069,125153.0,159994.0,10125.0
1680726378428069,125124.0,159998.0,10076.0
1680726378439069,125160.0,160004.0,10121.0
1680726378447069,125174.0,160012.0,10065.0
1680726378456069,125179.0,160025.0,10098.0
1680726378467069,125188.0,160044.0,10105.0
1680726378477069,125189.0,160064.0,10116.0
1680726378486069,125272.0,160075.0,10087.0
1680726378497069,125281.0,160080.0,10112.0
1680726378507068,125266.0,160112.0,10112.0
1680726378518068,125306.0,160118.0,10113.0
1680726378527068,125314.0,160087.0,10107.0
1680726378537068,125308.0,160126.0,10112.0
1680726378547068,125284.0,160149.0,10102.0
1680726378558068,125295.0,160178.0,10104.0
1680726378569068,125307.0,160158.0,10108.0
1680726378577068,125340.0,160134.0,10130.0
1680726378586068,125273.0,160148.0,10115.0
1680726378597069,125291.0,160115.0,10096.0
1680726378608069,125152.0,160019.0,10082.0
1680726378616068,124854.0,159777.0,10034.0
1680726378627068,124359.0,159552.0,9949.0
1680726378637068,123710.0,159128.0,9813.0
1680726378647068,122964.0,158672.0,9705.0
1680726378657068,122152.0,158174.0,9601.0
1680726378666068,121409.0,157809.0,9491.0
1680726378677068,121044.0,157543.0,9426.0
1680726378688068,120820.0,157506.0,9387.0
1680726378696068,120750.0,157466.0,9379.0
1680726378707068,120803.0,157545.0,9356.0
1680726378717068,121034.0,157705.0,9428.0
1680726378728068,121325.0,157954.0,9484.0
1680726378738068,121746.0,158131.0,9541.0
1680726378746068,122129.0,158349.0,9611.0
1680726378757068,122495.0,158587.0,9672.0
1680726378767068,122843.0,158834.0,9712.0
1680726378777069,123131.0,159012.0,9757.0
1680726378787069,123421.0,159167.0,9813.0
1680726378796069,123642.0,159317.0,9852.0
1680726378807069,123867.0,159467.0,9886.0
1680726378817069,124035.0,159575.0,9908.0
1680726378826069,124260.0,159668.0,9920.0
1680726378837069,124425.0,159786.0,9968.0
1680726378847069,124594.0,159883.0,9982.0
1680726378857069,124686.0,159954.0,9975.0
1680726378868069,124732.0,159995.0,10021.0
1680726378877069,124775.0,160035.0,10057.0
1680726378887069,124783.0,160012.0,10028.0
1680726378897069,124751.0,159945.0,10018.0
1680726378906069,124646.0,159873.0,9996.0
1680726378916069,124500.0,159759.0,9952.0
1680726378927069,124314.0,159637.0,9946.0
1680726378937069,124146.0,159553.0,9923.0
1680726378946069,123969.0,159461.0,9874.0
1680726378957069,123855.0,159360.0,9870.0
1680726378967069,123791.0,159324.0,9846.0
1680726378978068,123702.0,159269.0,9838.0
1680726378988068,123647.0,159268.0,9834.0
1680726378998068,123589.0,159250.0,9871.0
1680726379009068,123610.0,159236.0,9828.0
1680726379017068,123632.0,159255.0,9833.0
1680726379027068,123583.0,159262.0,9832.0
1680726379036068,123644.0,159293.0,9843.0
1680726379047068,123663.0,159294.0,9835.0
1680726379056068,123685.0,159345.0,9856.0
1680726379067068,123747.0,159410.0,9866.0
1680726379077068,123865.0,159437.0,9862.0
1680726379086068,123948.0,159451.0,9867.0
1680726379097068,124025.0,159511.0,9902.0
1680726379107068,124124.0,159589.0,9882.0
1680726379118068,124159.0,159632.0,9919.0
1680726379127068,124187.0,159596.0,9943.0
1680726379136069,124226.0,159662.0,9919.0
1680726379147069,124244.0,159683.0,9948.0
1680726379156069,124223.0,159689.0,9945.0
1680726379166069,124296.0,159677.0,9928.0
1680726379177069,124324.0,159661.0,9948.0
1680726379186069,124323.0,159718.0,9935.0
1680726379196069,124384.0,159730.0,9915.0
1680726379207069,124416.0,159714.0,9954.0
1680726379216069,124450.0,159732.0,9960.0
1680726379227069,124423.0,159751.0,9935.0
1680726379237069,124400.0,159735.0,9948.0
1680726379248068,124361.0,159774.0,9951.0
1680726379256068,124414.0,159688.0,9929.0
1680726379267068,124409.0,159705.0,9962.0
1680726379277068,124415.0,159704.0,9950.0
1680726379286068,124447.0,159694.0,9975.0
1680726379297068,124472.0,159650.0,9987.0
1680726379306068,124494.0,159718.0,9968.0
1680726379317069,124488.0,159706.0,9939.0
1680726379326069,124496.0,159689.0,9937.0
1680726379336069,124421.0,159695.0,9937.0
1680726379347069,124474.0,159696.0,9949.0
1680726379358069,124461.0,159709.0,9967.0
1680726379366068,124470.0,159690.0,9998.0
1680726379376068,124492.0,159685.0,9948.0
1680726379386068,124534.0,159695.0,9979.0
1680726379397068,124574.0,159680.0,9985.0
1680726379406068,124589.0,159727.0,10007.0
1680726379416068,124631.0,159761.0,9996.0
1680726379427068,124610.0,159746.0,9981.0
1680726379437068,124626.0,159736.0,10000.0
1680726379446068,124624.0,159731.0,10001.0
1680726379456068,124592.0,159719.0,10009.0
1680726379466068,124661.0,159749.0,10004.0
1680726379477068,124699.0,159786.0,10001.0
1680726379486068,124764.0,159802.0,10023.0
1680726379497069,124779.0,159811.0,9990.0
1680726379508069,124827.0,159838.0,10032.0
1680726379517069,124863.0,159859.0,10070.0
1680726379526069,124890.0,159846.0,10032.0
1680726379536069,124870.0,159822.0,10016.0
1680726379547069,124736.0,159714.0,10012.0
1680726379556069,124450.0,159549.0,9952.0
1680726379567069,123950.0,159242.0,9868.0
1680726379576069,123228.0,158853.0,9770.0
1680726379586069,122489.0,158317.0,9634.0
1680726379597069,121648.0,157790.0,9473.0
1680726379606069,120943.0,157342.0,9400.0
1680726379616069,120411.0,157103.0,9324.0
1680726379627069,120053.0,156944.0,9256.0
1680726379638069,119837.0,156802.0,9225.0
1680726379646068,119796.0,156860.0,9234.0
1680726379656068,119967.0,156956.0,9221.0
1680726379666068,120198.0,157147.0,9304.0
1680726379676069,120538.0,157369.0,9363.0
1680726379687069,120900.0,157623.0,9420.0
1680726379695068,121286.0,157836.0,9477.0
1680726379706068,121639.0,158038.0,9518.0
1680726379717068,122025.0,158242.0,9584.0
1680726379726068,122324.0,158434.0,9632.0
1680726379735068,122623.0,158550.0,9683.0
1680726379746068,122853.0,158648.0,9702.0
1680726379757068,123032.0,158842.0,9706.0
1680726379768068,123162.0,158924.0,9751.0
1680726379778068,123306.0,158980.0,9817.0
1680726379785068,123436.0,159101.0,9815.0
1680726379796068,123628.0,159176.0,9816.0
1680726379807068,123740.0,159215.0,9857.0
1680726379816068,123836.0,159302.0,9869.0
1680726379826068,123904.0,159337.0,9854.0
1680726379836068,123928.0,159331.0,9898.0
1680726379846068,123901.0,159277.0,9872.0
1680726379857069,123780.0,159185.0,9870.0
1680726379865069,123657.0,159089.0,9822.0
1680726379876068,123463.0,158979.0,9763.0
1680726379887068,123255.0,158857.0,9774.0
1680726379896068,123035.0,158694.0,9745.0
1680726379906068,122962.0,158709.0,9726.0
1680726379916068,122877.0,158617.0,9687.0
1680726379926068,122834.0,158554.0,9706.0
1680726379937068,122826.0,158595.0,9720.0
1680726379946068,122881.0,158624.0,9715.0
1680726379957068,122927.0,158591.0,9725.0
1680726379967068,122993.0,158663.0,9727.0
1680726379978068,123086.0,158679.0,9752.0
1680726379988068,123132.0,158778.0,9748.0
1680726379996068,123197.0,158726.0,9768.0
1680726380006068,123236.0,158844.0,9764.0
1680726380016068,123293.0,158867.0,9792.0
1680726380026068,123407.0,158911.0,9795.0
1680726380036069,123490.0,158916.0,9810.0
1680726380046069,123539.0,159009.0,9819.0
1680726380056069,123623.0,159062.0,9850.0
1680726380066069,123748.0,159081.0,9843.0
1680726380076069,123784.0,159138.0,9841.0
1680726380086068,123889.0,159186.0,9883.0
1680726380096068,123953.0,159196.0,9878.0
1680726380107068,123928.0,159223.0,9844.0
1680726380118068,123968.0,159197.0,9885.0
1680726380126068,123958.0,159187.0,9899.0
1680726380136068,123966.0,159217.0,9879.0
1680726380147068,123963.0,159201.0,9869.0
1680726380155068,124004.0,159217.0,9892.0
1680726380166068,124023.0,159239.0,9904.0
1680726380177068,124028.0,159235.0,9917.0
1680726380186068,124099.0,159236.0,9913.0
1680726380196068,124105.0,159213.0,9910.0
1680726380206068,124107.0,159225.0,9911.0
1680726380217069,124040.0,159256.0,9902.0
1680726380228068,124075.0,159209.0,9906.0
1680726380237069,124057.0,159177.0,9902.0
1680726380248068,124041.0,159139.0,9927.0
1680726380256068,124011.0,159209.0,9899.0
1680726380266068,124005.0,159202.0,9906.0
1680726380276068,124067.0,159188.0,9892.0
1680726380286068,124100.0,159260.0,9920.0
1680726380295068,124068.0,159224.0,9926.0
1680726380306068,124120.0,159220.0,9889.0
1680726380317068,124098.0,159184.0,9920.0
1680726380325068,124089.0,159252.0,9912.0
1680726380336068,124062.0,159219.0,9891.0
1680726380346068,124073.0,159240.0,9911.0
1680726380356068,124077.0,159228.0,9885.0
1680726380366068,124070.0,159191.0,9917.0
1680726380376068,124135.0,159266.0,9906.0
1680726380387068,124113.0,159334.0,9917.0
1680726380398069,124189.0,159296.0,9926.0
1680726380405068,124202.0,159290.0,9933.0
1680726380416068,124210.0,159296.0,9932.0
1680726380426068,124191.0,159363.0,9915.0
1680726380436068,124167.0,159340.0,9920.0
1680726380446068,124151.0,159343.0,9891.0
1680726380456068,124141.0,159320.0,9921.0
1680726380466068,124127.0,159300.0,9918.0
1680726380476068,124102.0,159297.0,9923.0
1680726380486068,124019.0,159257.0,9908.0
1680726380495068,123862.0,159126.0,9865.0
1680726380506068,123470.0,158848.0,9796.0
1680726380516068,122896.0,158476.0,9689.0
1680726380526068,122128.0,158010.0,9584.0
1680726380536068,121348.0,157522.0,9451.0
1680726380545068,120653.0,157102.0,9336.0
1680726380556068,119981.0,156768.0,9235.0
1680726380567068,119619.0,156567.0,9164.0
1680726380575069,119385.0,156434.0,9159.0
1680726380586068,119338.0,156474.0,9167.0
1680726380595069,119503.0,156604.0,9197.0
1680726380606068,119866.0,156781.0,9247.0
1680726380616068,120202.0,156969.0,9305.0
1680726380625069,120554.0,157259.0,9353.0
1680726380636068,120878.0,157483.0,9422.0
1680726380646068,121234.0,157703.0,9457.0
1680726380655068,121568.0,157915.0,9498.0
1680726380666068,121879.0,158103.0,9560.0
1680726380676068,122169.0,158229.0,9596.0
1680726380686068,122393.0,158370.0,9608.0
1680726380696068,122561.0,158499.0,9661.0
1680726380707068,122801.0,158645.0,9699.0
1680726380718068,122960.0,158668.0,9746.0
1680726380728068,123095.0,158838.0,9761.0
1680726380737068,123230.0,158930.0,9800.0
1680726380748068,123350.0,158999.0,9768.0
1680726380756069,123431.0,159011.0,9797.0
1680726380766069,123432.0,159036.0,9791.0
1680726380776069,123412.0,158988.0,9796.0
1680726380785069,123349.0,158967.0,9790.0
1680726380796069,123278.0,158877.0,9767.0
1680726380806069,123167.0,158750.0,9757.0
1680726380816069,123034.0,158735.0,9720.0
1680726380825069,122879.0,158620.0,9703.0
1680726380836068,122738.0,158516.0,9666.0
1680726380846068,122604.0,158466.0,9641.0
1680726380856068,122540.0,158417.0,9652.0
1680726380867068,122477.0,158401.0,9602.0
1680726380875068,122468.0,158397.0,9639.0
1680726380886068,122493.0,158393.0,9619.0
1680726380896068,122510.0,158397.0,9658.0
1680726380905068,122564.0,158421.0,9663.0
1680726380915068,122588.0,158464.0,9670.0
1680726380926068,122685.0,158497.0,9673.0
1680726380936069,122726.0,158501.0,9673.0
1680726380945069,122770.0,158615.0,9687.0
1680726380955069,122795.0,158621.0,9698.0
1680726380966069,122902.0,158656.0,9710.0
1680726380976069,122960.0,158718.0,9697.0
1680726380985069,123034.0,158752.0,9730.0
1680726380997069,123094.0,158784.0,9710.0
1680726381007069,123139.0,158744.0,9742.0
1680726381018069,123184.0,158835.0,9804.0
1680726381027069,123208.0,158829.0,9751.0
1680726381036069,123248.0,158897.0,9782.0
1680726381045069,123246.0,158868.0,9748.0
1680726381056069,123233.0,158880.0,9743.0
1680726381066069,123242.0,158852.0,9763.0
1680726381075069,123231.0,158868.0,9764.0
1680726381086069,123199.0,158845.0,9765.0
1680726381095069,123214.0,158853.0,9764.0
1680726381106069,123229.0,158839.0,9762.0
1680726381115069,123223.0,158811.0,9754.0
1680726381125069,123213.0,158851.0,9766.0
1680726381136068,123242.0,158825.0,9766.0
1680726381146068,123245.0,158794.0,9752.0
1680726381155068,123261.0,158788.0,9773.0
1680726381166068,123185.0,158750.0,9732.0
1680726381176068,123160.0,158724.0,9741.0
1680726381187068,123082.0,158731.0,9744.0
1680726381196068,123085.0,158647.0,9735.0
1680726381207068,123055.0,158636.0,9768.0
1680726381218068,123055.0,158581.0,9714.0
1680726381226068,123040.0,158592.0,9741.0
1680726381235068,123063.0,158668.0,9732.0
1680726381245068,123056.0,158632.0,9748.0
1680726381255068,123083.0,158621.0,9701.0
1680726381266068,123083.0,158597.0,9755.0
1680726381276068,123089.0,158667.0,9741.0
1680726381285068,123109.0,158646.0,9705.0
1680726381296069,123114.0,158643.0,9758.0
1680726381305069,123133.0,158674.0,9757.0
1680726381316069,123144.0,158677.0,9754.0
1680726381326069,123201.0,158685.0,9725.0
1680726381336068,123208.0,158754.0,9761.0
1680726381347068,123238.0,158718.0,9766.0
1680726381358068,123248.0,158733.0,9761.0
1680726381365068,123254.0,158713.0,9726.0
1680726381375068,123285.0,158746.0,9778.0
1680726381386068,123271.0,158760.0,9772.0
1680726381395068,123268.0,158784.0,9782.0
1680726381405068,123315.0,158796.0,9780.0
1680726381415068,123328.0,158783.0,9778.0
1680726381425068,123334.0,158741.0,9776.0
1680726381436068,123410.0,158738.0,9794.0
1680726381445068,123436.0,158799.0,9804.0
1680726381455068,123428.0,158723.0,9775.0
1680726381466068,123327.0,158685.0,9765.0
1680726381476069,123059.0,158510.0,9734.0
1680726381486069,122611.0,158228.0,9647.0
1680726381495069,121997.0,157756.0,9550.0
1680726381505069,121267.0,157369.0,9438.0
1680726381515069,120479.0,156889.0,9282.0
1680726381526069,119788.0,156443.0,9206.0
1680726381535069,119237.0,156111.0,9128.0
1680726381545069,118938.0,156007.0,9089.0
1680726381556069,118846.0,155968.0,9092.0
1680726381565069,118863.0,156033.0,9090.0
1680726381575069,119099.0,156138.0,9090.0
1680726381586068,119354.0,156347.0,9169.0
1680726381595069,119715.0,156580.0,9223.0
1680726381606068,120050.0,156814.0,9280.0
1680726381615069,120458.0,157047.0,9334.0
1680726381625069,120810.0,157234.0,9383.0
1680726381635069,121135.0,157435.0,9432.0
1680726381646068,121420.0,157625.0,9471.0
1680726381655069,121712.0,157791.0,9531.0
1680726381665069,121918.0,157893.0,9530.0
1680726381676069,122140.0,158054.0,9588.0
1680726381687069,122331.0,158177.0,9630.0
1680726381696069,122505.0,158266.0,9662.0
1680726381707069,122693.0,158377.0,9733.0
1680726381718068,122867.0,158449.0,9728.0
1680726381725068,122948.0,158459.0,9731.0
1680726381735068,123025.0,158484.0,9735.0
1680726381745068,123022.0,158501.0,9735.0
1680726381755068,122987.0,158458.0,9728.0
1680726381765068,122848.0,158343.0,9712.0
1680726381776068,122751.0,158244.0,9674.0
1680726381785068,122588.0,158110.0,9665.0
1680726381795068,122419.0,158074.0,9641.0
1680726381805068,122255.0,157916.0,9594.0
1680726381816068,122129.0,157870.0,9584.0
1680726381826068,122060.0,157824.0,9565.0
1680726381836069,121942.0,157734.0,9553.0
1680726381847069,121893.0,157755.0,9550.0
1680726381857069,121948.0,157748.0,9598.0
1680726381864069,121936.0,157753.0,9588.0
1680726381875069,122057.0,157786.0,9575.0
1680726381886068,122125.0,157815.0,9599.0
1680726381895069,122206.0,157911.0,9600.0
1680726381905068,122259.0,157927.0,9613.0
1680726381915068,122332.0,157987.0,9634.0
1680726381925068,122457.0,158019.0,9616.0
1680726381936068,122522.0,158058.0,9660.0
1680726381944068,122582.0,158097.0,9664.0
1680726381955068,122696.0,158195.0,9684.0
1680726381966068,122760.0,158222.0,9687.0
1680726381975068,122835.0,158246.0,9707.0
1680726381985068,122866.0,158282.0,9670.0
1680726381994068,122919.0,158313.0,9715.0
1680726382005068,122986.0,158327.0,9699.0
1680726382016069,123016.0,158345.0,9741.0
1680726382025069,123036.0,158349.0,9742.0
1680726382035069,123088.0,158342.0,9734.0
1680726382045069,123097.0,158413.0,9742.0
1680726382056069,123105.0,158419.0,9754.0
1680726382065069,123135.0,158386.0,9752.0
1680726382075069,123158.0,158395.0,9762.0
1680726382085069,123190.0,158397.0,9767.0
1680726382095069,123187.0,158380.0,9763.0
1680726382106068,123195.0,158377.0,9732.0
1680726382116068,123183.0,158371.0,9766.0
1680726382127068,123174.0,158367.0,9774.0
1680726382137068,123234.0,158347.0,9759.0
1680726382145068,123243.0,158293.0,9784.0
1680726382155068,123234.0,158369.0,9774.0
1680726382164068,123249.0,158373.0,9733.0
1680726382175068,123272.0,158357.0,9742.0
1680726382186068,123260.0,158346.0,9783.0
1680726382194069,123303.0,158356.0,9781.0
1680726382205068,123293.0,158378.0,9793.0
1680726382215068,123315.0,158378.0,9805.0
1680726382225068,123389.0,158389.0,9773.0
1680726382235068,123437.0,158353.0,9813.0
1680726382245068,123484.0,158439.0,9806.0
1680726382256068,123515.0,158490.0,9818.0
1680726382267068,123551.0,158459.0,9820.0
1680726382276068,123598.0,158479.0,9855.0
1680726382285068,123637.0,158503.0,9816.0
1680726382295068,123679.0,158519.0,9848.0
1680726382305068,123716.0,158534.0,9867.0
1680726382315068,123724.0,158553.0,9867.0
1680726382325068,123830.0,158580.0,9875.0
1680726382335068,123825.0,158582.0,9869.0
1680726382345068,123802.0,158538.0,9867.0
1680726382355068,123827.0,158599.0,9882.0
1680726382365068,123804.0,158544.0,9861.0
1680726382375069,123691.0,158408.0,9847.0
1680726382385069,123421.0,158280.0,9785.0
1680726382395069,123001.0,157991.0,9715.0
1680726382405068,122344.0,157605.0,9575.0
1680726382415068,121570.0,157140.0,9482.0
1680726382426068,120793.0,156682.0,9365.0
1680726382438068,120147.0,156259.0,9259.0
1680726382444069,119626.0,155942.0,9193.0
1680726382455068,119321.0,155838.0,9158.0
1680726382465068,119227.0,155811.0,9153.0
1680726382475068,119255.0,155926.0,9168.0
1680726382485068,119462.0,156029.0,9197.0
1680726382495068,119768.0,156191.0,9204.0
1680726382505068,120101.0,156384.0,9285.0
1680726382515068,120404.0,156610.0,9337.0
1680726382525068,120821.0,156874.0,9403.0
1680726382535068,121167.0,157058.0,9427.0
1680726382545068,121506.0,157277.0,9498.0
1680726382555069,121729.0,157432.0,9507.0
1680726382566069,121964.0,157577.0,9573.0
1680726382575069,122171.0,157699.0,9605.0
1680726382584069,122327.0,157798.0,9644.0
1680726382595069,122557.0,157904.0,9662.0
1680726382606068,122747.0,158012.0,9711.0
1680726382614068,122962.0,158112.0,9733.0
1680726382625068,123035.0,158199.0,9772.0
1680726382635068,123159.0,158249.0,9764.0
1680726382645068,123235.0,158263.0,9731.0
1680726382655068,123236.0,158226.0,9750.0
1680726382665068,123157.0,158146.0,9758.0
1680726382676068,123032.0,158085.0,9722.0
1680726382687068,122865.0,158014.0,9706.0
1680726382696068,122692.0,157907.0,9702.0
1680726382707068,122581.0,157825.0,9677.0
1680726382715068,122429.0,157695.0,9630.0
1680726382725068,122299.0,157660.0,9624.0
1680726382735069,122260.0,157616.0,9598.0
1680726382744069,122214.0,157546.0,9615.0
1680726382755069,122194.0,157561.0,9611.0
1680726382765069,122209.0,157568.0,9592.0
1680726382775069,122239.0,157634.0,9613.0
1680726382784069,122246.0,157651.0,9625.0
1680726382795069,122326.0,157696.0,9592.0
1680726382805069,122418.0,157703.0,9659.0
1680726382815069,122470.0,157740.0,9664.0
1680726382825069,122591.0,157860.0,9671.0
1680726382834069,122725.0,157932.0,9713.0
1680726382845069,122746.0,157977.0,9668.0
1680726382856068,122880.0,158036.0,9700.0
1680726382864068,122954.0,158019.0,9720.0
1680726382875068,123004.0,158137.0,9742.0
1680726382884068,123091.0,158155.0,9714.0
1680726382895068,123145.0,158171.0,9710.0
1680726382905068,123183.0,158210.0,9757.0
1680726382914069,123205.0,158205.0,9762.0
1680726382925068,123221.0,158284.0,9771.0
1680726382935068,123217.0,158270.0,9782.0
1680726382944069,123299.0,158279.0,9757.0
1680726382955068,123298.0,158257.0,9789.0
1680726382964069,123312.0,158290.0,9783.0
1680726382975068,123324.0,158297.0,9783.0
1680726382985068,123320.0,158335.0,9747.0
1680726382995068,123325.0,158336.0,9781.0
1680726383006068,123352.0,158328.0,9776.0
1680726383015068,123356.0,158311.0,9789.0
1680726383025068,123375.0,158371.0,9789.0
1680726383035068,123397.0,158369.0,9767.0
1680726383044068,123424.0,158380.0,9801.0
1680726383055068,123437.0,158374.0,9799.0
1680726383065068,123436.0,158415.0,9819.0
1680726383074068,123514.0,158417.0,9793.0
1680726383085068,123521.0,158442.0,9797.0
1680726383095069,123480.0,158410.0,9817.0
1680726383105069,123534.0,158498.0,9824.0
1680726383114069,123567.0,158410.0,9825.0
1680726383125069,123601.0,158501.0,9822.0
1680726383134069,123665.0,158541.0,9818.0
1680726383145069,123639.0,158530.0,9831.0
1680726383154069,123704.0,158576.0,9806.0
1680726383165068,123724.0,158608.0,9809.0
1680726383175068,123718.0,158645.0,9842.0
1680726383186068,123714.0,158687.0,9842.0
1680726383195068,123786.0,158658.0,9842.0
1680726383204069,123799.0,158644.0,9851.0
1680726383215068,123798.0,158739.0,9869.0
1680726383225068,123845.0,158761.0,9848.0
1680726383235068,123851.0,158750.0,9867.0
1680726383245068,123863.0,158787.0,9856.0
1680726383254068,123836.0,158814.0,9874.0
1680726383265068,123861.0,158813.0,9842.0
1680726383275069,123880.0,158856.0,9877.0
1680726383283069,123885.0,158837.0,9887.0
1680726383294068,123826.0,158726.0,9860.0
1680726383303069,123635.0,158658.0,9817.0
1680726383314068,123288.0,158400.0,9720.0
1680726383323068,122737.0,158070.0,9668.0
1680726383333068,121982.0,157584.0,9554.0
1680726383344068,121206.0,157131.0,9444.0
1680726383354068,120398.0,156591.0,9296.0
1680726383363068,119771.0,156287.0,9196.0
1680726383374068,119389.0,156113.0,9113.0
1680726383384068,119215.0,156041.0,9127.0
1680726383395068,119155.0,156039.0,9119.0
1680726383403068,119306.0,156150.0,9143.0
1680726383413068,119538.0,156332.0,9199.0
1680726383424068,119938.0,156559.0,9254.0
1680726383434068,120303.0,156742.0,9327.0
1680726383443068,120710.0,157041.0,9367.0
1680726383454069,121033.0,157300.0,9430.0
1680726383465068,121388.0,157494.0,9483.0
1680726383474069,121658.0,157679.0,9524.0
1680726383485068,121950.0,157848.0,9553.0
1680726383494068,122168.0,157909.0,9599.0
1680726383504068,122390.0,158094.0,9600.0
1680726383515068,122534.0,158214.0,9603.0
1680726383524068,122746.0,158327.0,9675.0
1680726383535068,122908.0,158443.0,9692.0
1680726383546068,123132.0,158526.0,9737.0
1680726383556068,123255.0,158564.0,9759.0
1680726383567068,123349.0,158667.0,9802.0
1680726383575068,123356.0,158661.0,9753.0
1680726383584068,123324.0,158621.0,9776.0
1680726383595068,123228.0,158513.0,9747.0
1680726383604068,123041.0,158469.0,9724.0
1680726383614068,122913.0,158355.0,9668.0
1680726383625068,122755.0,158235.0,9669.0
1680726383634069,122587.0,158099.0,9645.0
1680726383645069,122444.0,158073.0,9624.0
1680726383654069,122356.0,158025.0,9614.0
1680726383664069,122306.0,157932.0,9580.0
1680726383675068,122265.0,157957.0,9586.0
1680726383686068,122244.0,157994.0,9596.0
1680726383696068,122222.0,157951.0,9624.0
1680726383704068,122200.0,158006.0,9606.0
1680726383714068,122278.0,158019.0,9611.0
1680726383725068,122344.0,158041.0,9621.0
1680726383735068,122406.0,158009.0,9648.0
1680726383744068,122507.0,158129.0,9649.0
1680726383754068,122531.0,158204.0,9664.0
1680726383764068,122695.0,158228.0,9673.0
1680726383775068,122766.0,158253.0,9684.0
1680726383784068,122771.0,158330.0,9692.0
1680726383794068,122896.0,158334.0,9671.0
1680726383805068,122946.0,158417.0,9714.0
1680726383815069,123029.0,158441.0,9724.0
1680726383825069,123030.0,158484.0,9692.0
1680726383836068,123063.0,158484.0,9729.0
1680726383847068,123101.0,158508.0,9770.0
1680726383854068,123100.0,158531.0,9752.0
1680726383864068,123163.0,158560.0,9748.0
1680726383874068,123167.0,158530.0,9725.0
1680726383884068,123179.0,158525.0,9721.0
1680726383895068,123196.0,158534.0,9735.0
1680726383904068,123184.0,158506.0,9753.0
1680726383914068,123197.0,158554.0,9758.0
1680726383925068,123193.0,158514.0,9760.0
1680726383934068,123209.0,158497.0,9762.0
1680726383944068,123196.0,158557.0,9725.0
1680726383955068,123220.0,158564.0,9753.0
1680726383966068,123214.0,158544.0,9793.0
1680726383977068,123259.0,158539.0,9747.0
1680726383985068,123263.0,158536.0,9764.0
1680726383994069,123278.0,158562.0,9778.0
1680726384004069,123267.0,158556.0,9771.0
1680726384014069,123278.0,158562.0,9745.0
1680726384025069,123306.0,158579.0,9775.0
1680726384034069,123281.0,158574.0,9763.0
1680726384044069,123297.0,158593.0,9771.0
1680726384054069,123235.0,158609.0,9782.0
1680726384065069,123321.0,158576.0,9706.0
1680726384074069,123333.0,158607.0,9742.0
1680726384084069,123347.0,158578.0,9784.0
1680726384095069,123369.0,158651.0,9787.0
1680726384104069,123442.0,158674.0,9782.0
1680726384115069,123400.0,158692.0,9747.0
1680726384125069,123483.0,158692.0,9797.0
1680726384136068,123500.0,158666.0,9809.0
1680726384145069,123524.0,158738.0,9837.0
1680726384153068,123552.0,158733.0,9797.0
1680726384164068,123592.0,158730.0,9825.0
1680726384175069,123601.0,158758.0,9818.0
1680726384184069,123599.0,158731.0,9821.0
1680726384194069,123631.0,158790.0,9832.0
1680726384204069,123629.0,158798.0,9835.0
1680726384214069,123654.0,158833.0,9841.0
1680726384225069,123687.0,158841.0,9809.0
1680726384234069,123733.0,158780.0,9840.0
1680726384245069,123776.0,158897.0,9810.0
1680726384256069,123785.0,158853.0,9847.0
1680726384266069,123797.0,158892.0,9894.0
1680726384277068,123843.0,158885.0,9853.0
1680726384283069,123802.0,158835.0,9835.0
1680726384294068,123665.0,158776.0,9833.0
1680726384304068,123400.0,158560.0,9775.0
1680726384314068,122886.0,158250.0,9660.0
1680726384324068,122205.0,157814.0,9583.0
1680726384334068,121411.0,157337.0,9454.0
1680726384344068,120576.0,156829.0,9314.0
1680726384355069,119908.0,156447.0,9221.0
1680726384363068,119430.0,156197.0,9150.0
1680726384374068,119158.0,156058.0,9123.0
1680726384384068,119108.0,156037.0,9112.0
1680726384394068,119106.0,156129.0,9097.0
1680726384404068,119363.0,156299.0,9131.0
1680726384415068,119676.0,156529.0,9199.0
1680726384426068,120061.0,156769.0,9292.0
1680726384437068,120437.0,156987.0,9324.0
1680726384444068,120868.0,157222.0,9390.0
1680726384454068,121212.0,157439.0,9446.0
1680726384464068,121490.0,157655.0,9497.0
1680726384474068,121848.0,157786.0,9533.0
1680726384485068,122062.0,157878.0,9566.0
1680726384493068,122238.0,158061.0,9604.0
1680726384504068,122448.0,158157.0,9604.0
1680726384514068,122613.0,158260.0,9668.0
1680726384524068,122810.0,158368.0,9692.0
1680726384534069,122974.0,158453.0,9730.0
1680726384544069,123115.0,158534.0,9744.0
1680726384554069,123197.0,158591.0,9755.0
1680726384565069,123229.0,158625.0,9752.0
1680726384575069,123194.0,158604.0,9749.0
1680726384586068,123116.0,158509.0,9753.0
1680726384594068,123036.0,158403.0,9711.0
1680726384605068,122855.0,158271.0,9692.0
1680726384613068,122665.0,158143.0,9659.0
1680726384624068,122470.0,158062.0,9629.0
1680726384634068,122279.0,157959.0,9584.0
1680726384644068,122165.0,157870.0,9568.0
1680726384654068,122055.0,157777.0,9572.0
1680726384663068,121955.0,157798.0,9566.0
1680726384674068,121974.0,157761.0,9553.0
1680726384685068,121971.0,157797.0,9553.0
1680726384694068,122040.0,157816.0,9572.0
1680726384705068,122072.0,157850.0,9544.0
1680726384714069,122128.0,157822.0,9577.0
1680726384724069,122154.0,157940.0,9599.0
1680726384734069,122217.0,157978.0,9610.0
1680726384744069,122335.0,158004.0,9591.0
1680726384754069,122406.0,158016.0,9631.0
1680726384764069,122472.0,158126.0,9628.0
1680726384774069,122487.0,158149.0,9623.0
1680726384784069,122603.0,158204.0,9667.0
1680726384793069,122651.0,158198.0,9676.0
1680726384804069,122673.0,158260.0,9683.0
1680726384815069,122756.0,158246.0,9671.0
1680726384823068,122738.0,158268.0,9688.0
1680726384834068,122782.0,158277.0,9697.0
1680726384844068,122824.0,158296.0,9696.0
1680726384854068,122749.0,158294.0,9643.0
1680726384865068,122798.0,158286.0,9672.0
1680726384875068,122800.0,158225.0,9688.0
1680726384886068,122800.0,158252.0,9722.0
1680726384894069,122792.0,158267.0,9697.0
1680726384904069,122795.0,158247.0,9698.0
1680726384913069,122735.0,158258.0,9703.0
1680726384924069,122787.0,158239.0,9678.0
1680726384934069,122766.0,158203.0,9700.0
1680726384944069,122746.0,158191.0,9690.0
1680726384954069,122728.0,158220.0,9685.0
