Data Set 1:Time(s),Data Set 1:Force(N),Data Set 1:Respiration Rate(bpm)
0,2.3095779418945312,16.589860916137695
0.099999999999999992,2.2635879516601562,
0.19999999999999998,2.2048263549804688,
0.29999999999999999,2.1843795776367188,
0.39999999999999997,2.1894912719726562,
0.5,2.2175979614257812,
0.59999999999999998,2.2916946411132812,
0.69999999999999996,2.4577713012695312,
0.79999999999999993,2.6851654052734375,
0.89999999999999991,2.9355545043945312,
1,3.2447052001953125,
1.0999999999999999,3.599853515625,
1.2,3.8783493041992188,
1.3,4.0853042602539062,
1.3999999999999999,4.2283859252929688,
1.5,4.2028350830078125,
1.5999999999999999,3.9779891967773438,
1.7,3.7224960327148438,
1.7999999999999998,3.489990234375,
1.8999999999999999,3.2753677368164062,
2,3.1603927612304688,
2.1000000000000001,3.0965194702148438,
2.1999999999999997,3.0070953369140625,
2.2999999999999998,2.8997802734375,
2.3999999999999999,2.8103561401367188,
2.5,2.7490386962890625,
2.6000000000000001,2.7158203125,
2.6999999999999997,2.743927001953125,
2.7999999999999998,2.8026962280273438,
2.8999999999999999,2.8435745239257812,
3,2.8716812133789062,
3.0999999999999996,2.8895645141601562,
3.1999999999999997,2.9304428100585938,
3.2999999999999998,3.0275344848632812,
3.3999999999999999,3.1936111450195312,
3.5,3.4644393920898438,
3.5999999999999996,3.8042526245117188,
3.6999999999999997,4.105743408203125,
3.7999999999999998,4.3152542114257812,
3.8999999999999999,4.5170974731445312,
4,4.8109207153320312,
4.0999999999999996,5.1021957397460938,
4.2000000000000002,5.2631607055664062,
4.2999999999999998,5.0689773559570312,
4.3999999999999995,4.64739990234375,
4.5,4.3433609008789062,
4.5999999999999996,4.1594009399414062,
4.7000000000000002,3.9090042114257812,
4.7999999999999998,3.7046051025390625,
4.8999999999999995,3.6100692749023438,
5,3.5155410766601562,
5.0999999999999996,3.3826751708984375,
5.2000000000000002,3.2114944458007812,
5.2999999999999998,3.0454177856445312,
5.3999999999999995,2.9483261108398438,
5.5,2.8691253662109375,
5.5999999999999996,2.7592544555664062,
5.7000000000000002,2.6545028686523438,
5.7999999999999998,2.5752944946289062,
5.8999999999999995,2.524200439453125,
6,2.467987060546875,
6.0999999999999996,2.4092254638671875,
6.1999999999999993,2.3708953857421875,
6.2999999999999998,2.3223495483398438,
6.3999999999999995,2.2686996459960938,
6.5,2.2584762573242188,
6.5999999999999996,2.29425048828125,
6.6999999999999993,2.3121337890625,
6.7999999999999998,2.3044662475585938,
6.8999999999999995,2.2814712524414062,
7,2.2508163452148438,
7.0999999999999996,2.2405929565429688,
7.1999999999999993,2.2329254150390625,
7.2999999999999998,2.22015380859375,
7.3999999999999995,2.2329254150390625,
7.5,2.2610321044921875,
7.5999999999999996,2.2891387939453125,
7.6999999999999993,2.3121337890625,
7.7999999999999998,2.3121337890625,
7.8999999999999995,2.2916946411132812,
8,2.2635879516601562,
8.0999999999999996,2.2227096557617188,
8.1999999999999993,2.1818313598632812,
8.2999999999999989,2.1588363647460938,
8.4000000000000004,2.1511688232421875,
8.5,2.14605712890625,
8.5999999999999996,2.1332855224609375,
8.6999999999999993,2.1077346801757812,
8.7999999999999989,2.0898513793945312,
8.9000000000000004,2.07196044921875,
9,2.064300537109375,
9.0999999999999996,2.0591888427734375,
9.1999999999999993,2.0566329956054688,
9.2999999999999989,2.1613845825195312,
9.4000000000000004,2.5165328979492188,
9.5,3.168060302734375,
9.5999999999999996,4.0750808715820312,
9.6999999999999993,5.0638656616210938,
9.7999999999999989,5.9938888549804688,
9.9000000000000004,6.9698944091796875,
10,7.8564834594726562,8.3333339691162109
10.1,8.4543533325195312,
10.199999999999999,8.5897674560546875,
10.299999999999999,7.8104934692382812,
10.4,6.681182861328125,
10.5,6.1267471313476562,
10.6,5.9683380126953125,
10.699999999999999,5.9504547119140625,
10.799999999999999,6.1318588256835938,
10.9,6.3975753784179688,
11,6.681182861328125,
11.1,6.9724502563476562,
11.199999999999999,7.0746536254882812,
11.299999999999999,7.2305068969726562,
11.4,7.4655685424804688,
11.5,7.51922607421875,
11.6,7.7593917846679688,
11.699999999999999,8.3163833618164062,
11.799999999999999,8.5872116088867188,
11.899999999999999,8.3777008056640625,
12,8.0276641845703125,
12.1,7.636749267578125,
12.199999999999999,7.2943801879882812,
12.299999999999999,7.0235519409179688,
12.399999999999999,6.8881378173828125,
12.5,6.9162445068359375,
12.6,7.0925369262695312,
12.699999999999999,7.4604568481445312,
12.799999999999999,7.8386001586914062,
12.899999999999999,7.8437042236328125,
13,7.5779876708984375,
13.1,8.49267578125,
13.199999999999999,9.8979263305664062,
13.299999999999999,9.9285888671875,
13.399999999999999,9.21063232421875,
13.5,8.538665771484375,
13.6,8.1196441650390625,
13.699999999999999,7.8564834594726562,
13.799999999999999,7.8692550659179688,
13.899999999999999,8.1911849975585938,
14,9.4278106689453125,
14.1,10.891822814941406,
14.199999999999999,11.441146850585938,
14.299999999999999,11.607223510742188,
14.399999999999999,11.655769348144531,
14.5,11.597000122070312,
14.6,11.512687683105469,
14.699999999999999,11.489692687988281,
14.799999999999999,11.530570983886719,
14.899999999999999,11.420707702636719,
15,11.121772766113281,
15.1,11.315956115722656,
15.199999999999999,11.760520935058594,
15.299999999999999,11.563789367675781,
15.399999999999999,10.996574401855469,
15.5,10.393600463867188,
15.6,9.91070556640625,
15.699999999999999,9.5248947143554688,
15.799999999999999,9.02667236328125,
15.899999999999999,8.428802490234375,
16,8.1911849975585938,
16.099999999999998,7.9280242919921875,
16.199999999999999,7.049102783203125,
16.300000000000001,6.0986404418945312,
16.399999999999999,5.3781356811523438,
16.5,4.5733108520507812,
16.599999999999998,3.9013442993164062,
16.699999999999999,3.5461959838867188,
16.800000000000001,3.0811843872070312,
16.899999999999999,2.4577713012695312,
17,2.0055313110351562,
17.099999999999998,1.7679214477539062,
17.199999999999999,1.6069564819335938,
17.300000000000001,1.4689865112304688,
17.399999999999999,1.3693389892578125,
17.5,1.290130615234375,
17.599999999999998,1.2569198608398438,
17.699999999999999,1.254364013671875,
17.800000000000001,1.2313690185546875,
17.899999999999999,1.2083740234375,
18,1.1955947875976562,
18.099999999999998,1.2007064819335938,
18.199999999999999,1.2083740234375,
18.300000000000001,1.2058181762695312,
18.399999999999999,1.1955947875976562,
18.5,1.198150634765625,
18.599999999999998,1.22625732421875,
18.699999999999999,1.3029098510742188,
18.800000000000001,1.474090576171875,
18.899999999999999,1.6912689208984375,
19,1.898223876953125,
19.099999999999998,2.082183837890625,
19.199999999999999,2.248260498046875,
19.300000000000001,2.40411376953125,
19.399999999999999,2.5190887451171875,
19.5,2.5650787353515625,
19.599999999999998,2.49609375,
19.699999999999999,2.3811187744140625,
19.800000000000001,2.29425048828125,
19.899999999999999,2.174163818359375,
20,2.025970458984375,0
20.099999999999998,1.9033355712890625,
20.199999999999999,1.8445663452148438,
20.300000000000001,1.8139114379882812,
20.399999999999999,1.8343505859375,
20.5,1.96209716796875,
20.599999999999998,2.1971588134765625,
20.699999999999999,2.5318603515625,
20.800000000000001,2.88189697265625,
20.899999999999999,3.2753677368164062,
21,3.6483993530273438,
21.099999999999998,3.8400192260742188,
21.199999999999999,3.819580078125,
21.300000000000001,3.5768585205078125,
21.399999999999999,3.3801193237304688,
21.5,3.2728118896484375,
21.599999999999998,2.9202194213867188,
21.699999999999999,2.5650787353515625,
21.800000000000001,2.432220458984375,
21.899999999999999,2.3785629272460938,
22,2.4168853759765625,
22.099999999999998,2.5088653564453125,
22.199999999999999,2.485870361328125,
22.300000000000001,2.3836746215820312,
22.399999999999999,2.3530120849609375,
22.5,2.2789154052734375,
22.599999999999998,2.4168853759765625,
22.699999999999999,2.8665695190429688,
22.800000000000001,3.2396011352539062,
22.899999999999999,3.5743026733398438,
23,4.0393142700195312,
23.099999999999998,4.5426483154296875,
23.199999999999999,4.6320724487304688,
23.300000000000001,4.693389892578125,
23.399999999999999,4.9821090698242188,
23.5,5.2350540161132812,
23.599999999999998,5.3525848388671875,
23.699999999999999,5.2657089233398438,
23.799999999999997,5.1865081787109375,
23.899999999999999,4.8952407836914062,
24,4.5963058471679688,
24.099999999999998,4.335693359375,
24.199999999999999,3.9984359741210938,
24.299999999999997,3.5257568359375,
24.399999999999999,2.88189697265625,
24.5,2.4807662963867188,
24.599999999999998,2.5369720458984375,
24.699999999999999,2.6723861694335938,
24.799999999999997,2.4577713012695312,
24.899999999999999,2.3504562377929688,
25,2.3964462280273438,
25.099999999999998,2.43988037109375,
25.199999999999999,2.6187362670898438,
25.299999999999997,2.9866561889648438,
25.399999999999999,3.4823226928710938,
25.5,3.9243392944335938,
25.599999999999998,4.1389541625976562,
25.699999999999999,4.2590408325195312,
25.799999999999997,4.4659957885742188,
25.899999999999999,4.7010574340820312,
26,4.9591140747070312,
26.099999999999998,5.181396484375,
26.199999999999999,5.05364990234375,
26.299999999999997,4.5400924682617188,
26.399999999999999,4.2999191284179688,
26.5,4.3689041137695312,
26.599999999999998,4.4659957885742188,
26.699999999999999,4.399566650390625,
26.799999999999997,4.1670608520507812,
26.899999999999999,3.829803466796875,
27,3.4925460815429688,
27.099999999999998,2.9636611938476562,
27.199999999999999,2.3785629272460938,
27.299999999999997,2.1128463745117188,
27.399999999999999,2.0566329956054688,
27.5,2.0668563842773438,
27.599999999999998,1.96209716796875,
27.699999999999999,1.9135513305664062,
27.799999999999997,2.1613845825195312,
27.899999999999999,2.4833145141601562,
28,2.7822494506835938,
28.099999999999998,3.1833877563476562,
28.199999999999999,3.5232009887695312,
28.299999999999997,3.9626617431640625,
28.399999999999999,4.2692642211914062,
28.5,4.2692642211914062,
28.599999999999998,4.2769241333007812,
28.699999999999999,4.4021224975585938,
28.799999999999997,4.3510208129882812,
28.899999999999999,4.1364059448242188,
29,3.8604660034179688,
29.099999999999998,3.6228485107421875,
29.199999999999999,3.3673477172851562,
29.299999999999997,3.2447052001953125,
29.399999999999999,2.9662094116210938,
29.5,2.38623046875,
29.599999999999998,2.1588363647460938,
29.699999999999999,2.1894912719726562,
29.799999999999997,2.2865829467773438,
29.899999999999999,2.3887863159179688,
30,2.4015579223632812,0
30.099999999999998,2.4015579223632812,
30.199999999999999,2.3683395385742188,
30.299999999999997,2.40411376953125,
30.399999999999999,2.6289520263671875,
30.5,2.892120361328125,
30.599999999999998,3.111846923828125,
30.699999999999999,3.313690185546875,
30.799999999999997,3.6995010375976562,
30.899999999999999,4.0342025756835938,
31,3.8936767578125,
31.099999999999998,3.5870742797851562,
31.199999999999999,3.4848785400390625,
31.299999999999997,3.535980224609375,
31.399999999999999,3.5768585205078125,
31.5,3.54364013671875,
31.599999999999998,3.6075210571289062,
31.699999999999999,3.5308685302734375,
31.799999999999997,3.352020263671875,
31.899999999999999,3.2114944458007812,
32,3.1936111450195312,
32.100000000000001,3.1578369140625,
32.199999999999996,3.1220703125,
32.299999999999997,3.0530853271484375,
32.399999999999999,2.9636611938476562,
32.5,3.1552810668945312,
32.600000000000001,3.277923583984375,
32.699999999999996,3.2932510375976562,
32.799999999999997,3.3188018798828125,
32.899999999999999,3.5257568359375,
33,4.0060958862304688,
33.100000000000001,4.4608840942382812,
33.199999999999996,4.7368240356445312,
33.299999999999997,4.9718856811523438,
33.399999999999999,5.1967239379882812,
33.5,5.3628005981445312,
33.600000000000001,5.56719970703125,
33.699999999999996,5.5978622436523438,
33.799999999999997,5.2018356323242188,
33.899999999999999,5.0102157592773438,
34,5.1277389526367188,
34.100000000000001,5.2529373168945312,
34.199999999999996,5.2478256225585938,
34.299999999999997,5.007659912109375,
34.399999999999999,5.0383148193359375,
34.5,4.8492507934570312,
34.600000000000001,4.289703369140625,
34.699999999999996,3.8093643188476562,
34.799999999999997,3.3647918701171875,
34.899999999999999,3.2370452880859375,
35,3.369903564453125,
35.100000000000001,3.093963623046875,
35.199999999999996,2.7745895385742188,
35.299999999999997,2.9048919677734375,
35.399999999999999,3.0454177856445312,
35.5,3.2804794311523438,
35.600000000000001,3.7787017822265625,
35.699999999999996,4.3408050537109375,
35.799999999999997,4.3842391967773438,
35.899999999999999,4.2539291381835938,
36,4.4430007934570312,
36.100000000000001,4.7138290405273438,
36.199999999999996,4.9744415283203125,
36.299999999999997,5.2580490112304688,
36.399999999999999,5.1072998046875,
36.5,4.5605316162109375,
36.600000000000001,4.2948150634765625,
36.699999999999996,4.2692642211914062,
36.799999999999997,4.2667083740234375,
36.899999999999999,4.1159591674804688,
37,3.7787017822265625,
37.100000000000001,3.6586151123046875,
37.199999999999996,3.6202926635742188,
37.299999999999997,3.3571243286132812,
37.399999999999999,2.9815444946289062,
37.5,2.8052444458007812,
37.600000000000001,2.7464828491210938,
37.699999999999996,2.708160400390625,
37.799999999999997,2.9968719482421875,
37.899999999999999,3.4312210083007812,
38,3.6867218017578125,
38.100000000000001,4.087860107421875,
38.199999999999996,4.5733108520507812,
38.299999999999997,4.8364715576171875,
38.399999999999999,4.9591140747070312,
38.5,5.2146148681640625,
38.600000000000001,5.7869338989257812,
38.699999999999996,5.7767105102539062,
38.799999999999997,5.099639892578125,
38.899999999999999,4.5324249267578125,
39,4.1364059448242188,
39.100000000000001,3.8502426147460938,
39.199999999999996,3.80169677734375,
39.299999999999997,3.6024093627929688,
39.399999999999999,3.0428619384765625,
39.5,2.84613037109375,
39.600000000000001,2.835906982421875,
39.699999999999996,2.7848052978515625,
39.799999999999997,2.7822494506835938,
39.899999999999999,2.8844528198242188,
40,2.9892044067382812,0
40.100000000000001,2.984100341796875,
40.199999999999996,3.129730224609375,
40.299999999999997,3.3647918701171875,
40.399999999999999,3.6228485107421875,
40.5,3.9141159057617188,
40.600000000000001,4.31781005859375,
40.699999999999996,4.4608840942382812,
40.799999999999997,4.3740158081054688,
40.899999999999999,4.3689041137695312,
41,4.2207183837890625,
41.100000000000001,4.0035400390625,
41.199999999999996,3.80169677734375,
41.299999999999997,3.7684860229492188,
41.399999999999999,4.0239791870117188,
41.5,4.3561325073242188,
41.600000000000001,4.5273208618164062,
41.699999999999996,4.5579757690429688,
41.799999999999997,4.6269607543945312,
41.899999999999999,4.8517990112304688,
42,4.9131240844726562,
42.100000000000001,5.2018356323242188,
42.199999999999996,5.2350540161132812,
42.299999999999997,5.1660690307617188,
42.399999999999999,5.3449172973632812,
42.5,5.3219223022460938,
42.600000000000001,5.2708206176757812,
42.699999999999996,5.1072998046875,
42.799999999999997,5.2759323120117188,
42.899999999999999,5.2631607055664062,
43,4.6065216064453125,
43.100000000000001,3.8885650634765625,
43.199999999999996,3.3443527221679688,
43.299999999999997,3.0096511840820312,
43.399999999999999,3.0607452392578125,
43.5,3.0990753173828125,
43.600000000000001,2.8793411254882812,
43.699999999999996,2.8767852783203125,
43.799999999999997,2.945770263671875,
43.899999999999999,3.1706161499023438,
44,3.5385360717773438,
44.100000000000001,4.1261825561523438,
44.199999999999996,4.8339157104492188,
44.299999999999997,5.01531982421875,
44.399999999999999,4.9310073852539062,
44.5,5.01531982421875,
44.600000000000001,5.1047439575195312,
44.699999999999996,5.3346939086914062,
44.799999999999997,5.651519775390625,
44.899999999999999,5.153289794921875,
45,4.5988540649414062,
45.100000000000001,4.6244049072265625,
45.199999999999996,4.5630874633789062,
45.299999999999997,4.3050308227539062,
45.399999999999999,3.9064559936523438,
45.5,3.9090042114257812,
45.600000000000001,3.8809051513671875,
45.699999999999996,3.3571243286132812,
45.799999999999997,2.984100341796875,
45.899999999999999,2.8844528198242188,
46,2.9304428100585938,
46.100000000000001,3.001983642578125,
46.199999999999996,3.4312210083007812,
46.299999999999997,3.7965850830078125,
46.399999999999999,3.995880126953125,
46.5,4.4506683349609375,
46.600000000000001,4.9003448486328125,
46.699999999999996,5.2606048583984375,
46.799999999999997,5.3116989135742188,
46.899999999999999,5.2554931640625,
47,5.0919723510742188,
47.100000000000001,4.601409912109375,
47.199999999999996,3.9294509887695312,
47.299999999999997,3.3213577270507812,
47.399999999999999,2.9662094116210938,
47.5,2.7669219970703125,
47.599999999999994,2.77203369140625,
47.699999999999996,3.17572021484375,
47.799999999999997,3.479766845703125,
47.899999999999999,3.7250442504882812,
48,4.1619491577148438,
48.099999999999994,4.5579757690429688,
48.199999999999996,4.8747940063476562,
48.299999999999997,5.0562057495117188,
48.399999999999999,5.1711807250976562,
48.5,5.1865081787109375,
48.599999999999994,4.7444915771484375,
48.699999999999996,4.0035400390625,
48.799999999999997,3.4388885498046875,
48.899999999999999,3.0351943969726562,
49,2.7567062377929688,
49.099999999999994,2.6263961791992188,
49.199999999999996,2.754150390625,
49.299999999999997,2.6800537109375,
49.399999999999999,2.467987060546875,
49.5,2.4526596069335938,
49.599999999999994,2.51397705078125,
49.699999999999996,2.69793701171875,
49.799999999999997,2.9023361206054688,
49.899999999999999,3.0888519287109375,
50,3.2523727416992188,24.264705657958984
50.099999999999994,3.2063827514648438,
50.199999999999996,3.1706161499023438,
50.299999999999997,3.4567718505859375,
50.399999999999999,3.87579345703125,
50.5,4.1287384033203125,
50.599999999999994,4.2002792358398438,
50.699999999999996,4.233489990234375,
50.799999999999997,3.9652175903320312,
50.899999999999999,3.50787353515625,
51,3.1731643676757812,
51.099999999999994,2.9151153564453125,
51.199999999999996,2.8844528198242188,
51.299999999999997,2.9227752685546875,
51.399999999999999,2.8972244262695312,
51.5,2.9202194213867188,
51.599999999999994,2.818023681640625,
51.699999999999996,2.6877212524414062,
51.799999999999997,2.7643661499023438,
51.899999999999999,3.0811843872070312,
52,3.489990234375,
52.099999999999994,3.811920166015625,
52.199999999999996,4.2820358276367188,
52.299999999999997,4.4506683349609375,
52.399999999999999,4.4251174926757812,
52.5,4.4353408813476562,
52.599999999999994,4.2513809204101562,
52.699999999999996,4.0980758666992188,
52.799999999999997,3.8068084716796875,
52.899999999999999,3.4107818603515625,
53,3.1629486083984375,
53.099999999999994,2.7771453857421875,
53.199999999999996,2.4884262084960938,
53.299999999999997,2.4194412231445312,
53.399999999999999,2.3249053955078125,
53.5,2.3453445434570312,
53.599999999999994,2.6493911743164062,
53.699999999999996,3.06585693359375,
53.799999999999997,3.3162460327148438,
53.899999999999999,3.6254043579101562,
54,4.0571975708007812,
54.099999999999994,4.5630874633789062,
54.199999999999996,4.92333984375,
54.299999999999997,4.8339157104492188,
54.399999999999999,4.7419357299804688,
54.5,4.42767333984375,
54.599999999999994,3.7173843383789062,
54.699999999999996,3.1425094604492188,
54.799999999999997,2.7899169921875,
54.899999999999999,2.5344161987304688,
55,2.3964462280273438,
55.099999999999994,2.69793701171875,
55.199999999999996,2.7924728393554688,
55.299999999999997,2.467987060546875,
55.399999999999999,2.4219970703125,
55.5,2.5829620361328125,
55.599999999999994,2.8665695190429688,
55.699999999999996,3.0428619384765625,
55.799999999999997,3.2702560424804688,
55.899999999999999,3.5589752197265625,
56,3.6356201171875,
56.099999999999994,3.7301559448242188,
56.199999999999996,4.0009841918945312,
56.299999999999997,4.2590408325195312,
56.399999999999999,4.325469970703125,
56.5,4.565643310546875,
