time,ecg,hr,rr,marker
1681411038951752226,-0.014
1681411038959452516,-0.01
1681411038967152806,-0.024
1681411038974853096,-0.022
1681411038982553386,-0.027
1681411038990253676,-0.112
1681411038997953966,-0.201
1681411039005654256,-0.189
1681411039013354546,-0.137
1681411039021054836,-0.122
1681411039028755126,-0.112
1681411039036455416,-0.083
1681411039044155706,-0.054
1681411039051855996,-0.062
1681411039059556286,-0.126
1681411039067256576,-0.203
1681411039074956866,-0.234
1681411039082657156,-0.232
1681411039090357446,-0.224
1681411039098057736,-0.195
1681411039105758026,-0.16
1681411039113458316,-0.16,,748
1681411039121158606,-0.178
1681411039128858896,-0.079
1681411039136559186,0.32
1681411039144259476,0.856
1681411039151959766,0.9540000000000001
1681411039159660056,0.226
1681411039167360346,-0.661
1681411039175060636,-0.63
1681411039182760926,-0.106
1681411039190461216,-0.037
1681411039198161506,-0.153
1681411039205861796,-0.081
1681411039213562086,-0.039
1681411039221262376,-0.08700000000000001
1681411039228962666,-0.12
1681411039236662956,-0.151
1681411039244363246,-0.151
1681411039252063536,-0.112
1681411039259763826,-0.10300000000000001
1681411039267464116,-0.13
1681411039275164406,-0.11800000000000001
1681411039282864696,-0.076
1681411039290564986,-0.06
1681411039298265276,-0.058
1681411039305965566,-0.066
1681411039313665856,-0.101
1681411039321366146,-0.137
1681411039329066436,-0.155
1681411039336766726,-0.16
1681411039344467016,-0.145
1681411039352167306,-0.151
1681411039359867596,-0.18
1681411039367567886,-0.18
1681411039375268176,-0.164
1681411039382968466,-0.182
1681411039390668756,-0.187
1681411039398369046,-0.153
1681411039406069336,-0.149
1681411039413769626,-0.168
1681411039421469916,-0.168
1681411039429170206,-0.155
1681411039436870496,-0.158
1681411039444570786,-0.18
1681411039452271076,-0.199
1681411039459971366,-0.187
1681411039467671656,-0.168
1681411039475371946,-0.185
1681411039483072236,-0.212
1681411039490772526,-0.199
1681411039498472816,-0.187
1681411039506173106,-0.203
1681411039513873440,-0.185,82
1681411039521573312,-0.137
1681411039529273184,-0.126
1681411039536973056,-0.17200000000000001
1681411039544672928,-0.197
1681411039552372800,-0.137
1681411039560072672,-0.097
1681411039567772544,-0.195
1681411039575472416,-0.313
1681411039583172288,-0.324
1681411039590872160,-0.334
1681411039598572032,-0.399
1681411039606271904,-0.382
1681411039613971776,-0.32
1681411039621671648,-0.343
1681411039629371520,-0.392
1681411039637071392,-0.357
1681411039644771264,-0.28600000000000003
1681411039652471136,-0.234
1681411039660171008,-0.197
1681411039667870880,-0.176
1681411039675570752,-0.17400000000000002
1681411039683270624,-0.187
1681411039690970496,-0.191
1681411039698670368,-0.162
1681411039706370240,-0.133
1681411039714070112,-0.139
1681411039721769984,-0.182
1681411039729469856,-0.226
1681411039737169728,-0.234
1681411039744869600,-0.222
1681411039752569472,-0.187
1681411039760269344,-0.14100000000000001
1681411039767969216,-0.128
1681411039775669088,-0.145
1681411039783368960,-0.182
1681411039791068832,-0.245
1681411039798768704,-0.251
1681411039806468576,-0.224
1681411039814168448,-0.222
1681411039821868320,-0.20700000000000002
1681411039829568192,-0.189
1681411039837268064,-0.191
1681411039844967936,-0.18
1681411039852667808,-0.147
1681411039860367680,0.0
1681411039868067552,0.424
1681411039875767424,0.902
1681411039883467296,0.775,,769
1681411039891167168,-0.16
1681411039898867040,-0.858
1681411039906566912,-0.519
1681411039914266784,-0.085
1681411039921966656,-0.164
1681411039929666528,-0.199
1681411039937366400,-0.083
1681411039945066272,-0.07
1681411039952766144,-0.099
1681411039960466016,-0.095
1681411039968165888,-0.124
1681411039975865760,-0.197
1681411039983565632,-0.23700000000000002
1681411039991265504,-0.218
1681411039998965376,-0.191
1681411040006665248,-0.189
1681411040014365120,-0.189
1681411040022064992,-0.168
1681411040029764864,-0.133
1681411040037464736,-0.108
1681411040045164608,-0.112
1681411040052864480,-0.135
1681411040060564352,-0.155
1681411040068264224,-0.199
1681411040075964136,-0.289
1681411040083664426,-0.334
1681411040091364716,-0.305
1681411040099065006,-0.34500000000000003
1681411040106765296,-0.436
1681411040114465586,-0.432
1681411040122165876,-0.37
1681411040129866166,-0.361
1681411040137566456,-0.382
1681411040145266746,-0.374
1681411040152967036,-0.359
1681411040160667326,-0.365
1681411040168367616,-0.376
1681411040176067906,-0.359
1681411040183768196,-0.343
1681411040191468486,-0.363
1681411040199168776,-0.374
1681411040206869066,-0.336
1681411040214569356,-0.336
1681411040222269646,-0.386
1681411040229969936,-0.388
1681411040237670226,-0.34500000000000003
1681411040245370516,-0.316
1681411040253070806,-0.293
1681411040260771096,-0.247
1681411040268471386,-0.145
1681411040276171676,-0.062
1681411040283871966,-0.097
1681411040291572256,-0.137
1681411040299272546,-0.093
1681411040306972836,-0.07200000000000001
1681411040314673126,-0.091
1681411040322373416,-0.093
1681411040330073706,-0.08700000000000001
1681411040337773996,-0.091
1681411040345474286,-0.091
1681411040353174576,-0.095
1681411040360874866,-0.124
1681411040368575156,-0.17200000000000001
1681411040376275446,-0.197
1681411040383975736,-0.176
1681411040391676026,-0.137
1681411040399376316,-0.116
1681411040407076606,-0.112
1681411040414776896,-0.10300000000000001
1681411040422477186,-0.108
1681411040430177476,-0.122
1681411040437877766,-0.128
1681411040445578056,-0.099
1681411040453278346,-0.049
1681411040460978636,-0.045
1681411040468678926,-0.083
1681411040476379216,-0.089
1681411040484079506,-0.081
1681411040491779796,-0.093
1681411040499480086,-0.064
1681411040507180376,0.033
1681411040514880666,0.095
1681411040522580956,0.041
1681411040530281246,0.012
1681411040537981536,0.068
1681411040545681826,0.06
1681411040553382116,0.033
1681411040561082406,0.261
1681411040568782696,0.794
1681411040576482986,1.135
1681411040584183276,0.675
1681411040591883566,-0.355
1681411040599583856,-0.79
1681411040607284146,-0.343
1681411040614984436,-0.128
1681411040622684726,-0.343
1681411040630385016,-0.293
1681411040638085354,-0.114,81
1681411040645785644,-0.08700000000000001,,763
1681411040653485934,-0.033
1681411040661186224,0.031
1681411040668886514,0.014
1681411040676586804,0.008
1681411040684287094,0.039
1681411040691987384,0.054
1681411040699687674,0.049
1681411040707387964,0.033
1681411040715088254,0.012
1681411040722788544,0.014
1681411040730488834,0.008
1681411040738189124,-0.081
1681411040745889414,-0.212
1681411040753589704,-0.247
1681411040761289994,-0.135
1681411040768990284,-0.018000000000000002
1681411040776690574,-0.02
1681411040784390864,-0.091
1681411040792091154,-0.12
1681411040799791444,-0.074
1681411040807491734,-0.051000000000000004
1681411040815192024,-0.116
1681411040822892314,-0.218
1681411040830592604,-0.255
1681411040838292894,-0.243
1681411040845993184,-0.274
1681411040853693474,-0.32
1681411040861393764,-0.311
1681411040869094054,-0.289
1681411040876794344,-0.295
1681411040884494634,-0.318
1681411040892194924,-0.313
1681411040899895214,-0.247
1681411040907595504,-0.14300000000000002
1681411040915295794,-0.099
1681411040922996084,-0.133
1681411040930696374,-0.14300000000000002
1681411040938396664,-0.124
1681411040946096954,-0.133
1681411040953797244,-0.16
1681411040961497534,-0.189
1681411040969197824,-0.20500000000000002
1681411040976898114,-0.216
1681411040984598404,-0.20500000000000002
1681411040992298694,-0.176
1681411040999998984,-0.162
1681411041007699274,-0.164
1681411041015399564,-0.151
1681411041023099854,-0.14100000000000001
1681411041030800144,-0.147
1681411041038500434,-0.14300000000000002
1681411041046200724,-0.12
1681411041053901014,-0.097
1681411041061601304,-0.099
1681411041069301594,-0.128
1681411041077001884,-0.18
1681411041084702174,-0.247
1681411041092402464,-0.259
1681411041100102754,-0.20700000000000002
1681411041107803044,-0.185
1681411041115503334,-0.201
1681411041123203624,-0.193
1681411041130903914,-0.153
1681411041138604204,-0.108
1681411041146304494,-0.07
1681411041154004784,-0.066
1681411041161705074,-0.10300000000000001
1681411041169405364,-0.126
1681411041177105654,-0.101
1681411041184805944,-0.085
1681411041192506234,-0.089
1681411041200206568,-0.10300000000000001
1681411041207906440,-0.149
1681411041215606312,-0.176
1681411041223306184,-0.162
1681411041231006056,-0.155
1681411041238705928,-0.029
1681411041246405800,0.426
1681411041254105672,0.962
1681411041261805544,0.923
1681411041269505416,0.01
1681411041277205288,-0.871
1681411041284905160,-0.6880000000000001
1681411041292605032,-0.158
1681411041300304904,-0.176
1681411041308004776,-0.264
1681411041315704648,-0.135
1681411041323404520,-0.091
1681411041331104392,-0.124
1681411041338804264,-0.10300000000000001
1681411041346504136,-0.095
1681411041354204008,-0.122
1681411041361903880,-0.112
1681411041369603752,-0.074
1681411041377303624,-0.045
1681411041385003496,-0.027,,740
1681411041392703368,-0.027
1681411041400403240,-0.027
1681411041408103112,0.008
1681411041415802984,0.037
1681411041423502856,0.033
1681411041431202728,0.035
1681411041438902600,0.045
1681411041446602472,0.022
1681411041454302344,-0.02
1681411041462002216,-0.012
1681411041469702088,0.033
1681411041477401960,0.035
1681411041485101832,-0.014
1681411041492801704,-0.047
1681411041500501576,-0.033
1681411041508201448,-0.041
1681411041515901320,-0.091
1681411041523601192,-0.106
1681411041531301064,-0.099
1681411041539000936,-0.122
1681411041546700808,-0.14100000000000001
1681411041554400680,-0.128
1681411041562100552,-0.112
1681411041569800424,-0.11800000000000001
1681411041577500296,-0.153
1681411041585200168,-0.226
1681411041592900040,-0.293
1681411041600599912,-0.303
1681411041608299784,-0.305
1681411041615999656,-0.324
1681411041623699528,-0.313
1681411041631399400,-0.297
1681411041639099272,-0.293
1681411041646799144,-0.268
1681411041654499016,-0.234
1681411041662198888,-0.23900000000000002
1681411041669898760,-0.257
1681411041677598632,-0.243
1681411041685298504,-0.216
1681411041692998376,-0.226
1681411041700698248,-0.255
1681411041708398120,-0.249
1681411041716097992,-0.241
1681411041723797864,-0.255
1681411041731497736,-0.243
1681411041739197608,-0.20700000000000002
1681411041746897480,-0.191
1681411041754597352,-0.199
1681411041762297264,-0.203,81
1681411041769997136,-0.182
1681411041777697008,-0.16
1681411041785396880,-0.166
1681411041793096752,-0.168
1681411041800796624,-0.14300000000000002
1681411041808496496,-0.155
1681411041816196368,-0.20700000000000002
1681411041823896240,-0.20500000000000002
1681411041831596112,-0.14300000000000002
1681411041839295984,-0.126
1681411041846995856,-0.155
1681411041854695728,-0.149
1681411041862395600,-0.126
1681411041870095472,-0.128
1681411041877795344,-0.135
1681411041885495216,-0.116
1681411041893195088,-0.08700000000000001
1681411041900894960,-0.101
1681411041908594832,-0.137
1681411041916294704,-0.006
1681411041923994576,0.46900000000000003
1681411041931694448,1.037
1681411041939394320,1.02
1681411041947094192,0.083
1681411041954794064,-0.812
1681411041962493936,-0.625
1681411041970193808,-0.122
1681411041977893680,-0.14300000000000002
1681411041985593552,-0.218
1681411041993293424,-0.128
1681411042000993296,-0.124
1681411042008693168,-0.13
1681411042016393040,-0.074
1681411042024092912,-0.06
1681411042031792784,-0.07
1681411042039492656,-0.051000000000000004
1681411042047192528,-0.037
1681411042054892400,-0.037
1681411042062592272,-0.024
1681411042070292144,0.004
1681411042077992016,0.02
1681411042085691888,-0.022
1681411042093391760,-0.095
1681411042101091632,-0.083
1681411042108791504,-0.027
1681411042116491376,-0.029
1681411042124191248,-0.037
1681411042131891120,-0.022,,752
1681411042139590992,-0.024
1681411042147290864,-0.039
1681411042154990736,-0.033
1681411042162690608,-0.016
1681411042170390480,-0.027
1681411042178090352,-0.106
1681411042185790224,-0.189
1681411042193490096,-0.178
1681411042201189968,-0.135
1681411042208889840,-0.116
1681411042216589712,-0.089
1681411042224289584,-0.10300000000000001
1681411042231989456,-0.17
1681411042239689328,-0.20500000000000002
1681411042247389200,-0.195
1681411042255089072,-0.228
1681411042262788944,-0.32
1681411042270488816,-0.338
1681411042278188688,-0.261
1681411042285888560,-0.182
1681411042293588432,-0.097
1681411042301288304,-0.06
1681411042308988176,-0.106
1681411042316688048,-0.114
1681411042324387960,-0.076
1681411042332088250,-0.114
1681411042339788540,-0.178
1681411042347488830,-0.214
1681411042355189120,-0.259
1681411042362889410,-0.28400000000000003
1681411042370589700,-0.28400000000000003
1681411042378289990,-0.386
1681411042385990280,-0.521
1681411042393690570,-0.463
1681411042401390860,-0.372
1681411042409091150,-0.461
1681411042416791440,-0.511
1681411042424491730,-0.428
1681411042432192020,-0.386
1681411042439892310,-0.401
1681411042447592600,-0.449
1681411042455292890,-0.548
1681411042462993180,-0.592
1681411042470693470,-0.5650000000000001
1681411042478393760,-0.623
1681411042486094050,-0.731
1681411042493794340,-0.6960000000000001
1681411042501494630,-0.636
1681411042509194920,-0.736
1681411042516895210,-0.9390000000000001
1681411042524595500,-1.314
1681411042532295790,-1.813
1681411042539996080,-1.921
1681411042547696370,-1.5050000000000001
1681411042555396660,-1.214
1681411042563096950,-1.266
1681411042570797240,-1.018
1681411042578497530,-0.438
1681411042586197820,-0.27
1681411042593898110,-0.428
1681411042601598400,-0.168
1681411042609298690,0.499
1681411042616998980,0.902
1681411042624699270,0.463
1681411042632399560,-0.586
1681411042640099850,-0.989
1681411042647800140,-0.401
1681411042655500430,-0.027
1681411042663200720,-0.166
1681411042670901010,-0.162
1681411042678601300,-0.083
1681411042686301590,-0.187
1681411042694001880,-0.278
1681411042701702170,-0.241
1681411042709402460,-0.226
1681411042717102750,-0.255
1681411042724803040,-0.264
1681411042732503330,-0.295
1681411042740203620,-0.307
1681411042747903910,-0.28200000000000003
1681411042755604200,-0.293
1681411042763304490,-0.28600000000000003
1681411042771004780,-0.251
1681411042778705070,-0.255
1681411042786405360,-0.23900000000000002
1681411042794105650,-0.178
1681411042801805940,-0.14100000000000001
1681411042809506230,-0.149
1681411042817206520,-0.12
1681411042824906810,-0.039
1681411042832607100,-0.07200000000000001
1681411042840307390,-0.20500000000000002
1681411042848007680,-0.191
1681411042855707970,-0.033
1681411042863408260,0.062,,729
1681411042871108550,0.029
1681411042878808840,0.006
1681411042886509174,0.01,82
1681411042894209046,-0.037
1681411042901908918,-0.056
1681411042909608790,0.004
1681411042917308662,0.253
1681411042925008534,0.783
1681411042932708406,1.178
1681411042940408278,1.324
1681411042948108150,1.472
1681411042955808022,1.341
1681411042963507894,0.887
1681411042971207766,0.465
1681411042978907638,0.16
1681411042986607510,0.099
1681411042994307382,0.34700000000000003
1681411043002007254,0.619
1681411043009707126,0.6940000000000001
1681411043017406998,0.607
1681411043025106870,0.546
1681411043032806742,0.584
1681411043040506614,0.555
1681411043048206486,0.386
1681411043055906358,0.189
1681411043063606230,0.037
1681411043071306102,-0.089
1681411043079005974,-0.228
1681411043086705846,-0.378
1681411043094405718,-0.509
1681411043102105590,-0.578
1681411043109805462,-0.5750000000000001
1681411043117505334,-0.5630000000000001
1681411043125205206,-0.5650000000000001
1681411043132905078,-0.58
1681411043140604950,-0.644
1681411043148304822,-0.671
1681411043156004694,-0.546
1681411043163704566,-0.455
1681411043171404438,-0.513
1681411043179104310,-0.598
1681411043186804182,-0.665
1681411043194504054,-0.6900000000000001
1681411043202203926,-0.623
1681411043209903798,-0.54
1681411043217603670,-0.501
1681411043225303542,-0.484
1681411043233003414,-0.47800000000000004
1681411043240703286,-0.459
1681411043248403158,-0.43
1681411043256103030,-0.417
1681411043263802902,-0.272
1681411043271502774,0.214
1681411043279202646,0.802
1681411043286902518,0.781
1681411043294602390,-0.164
1681411043302302262,-1.012
1681411043310002134,-0.779
1681411043317702006,-0.28200000000000003
1681411043325401878,-0.316
1681411043333101750,-0.395
1681411043340801622,-0.307
1681411043348501494,-0.326
1681411043356201366,-0.386
1681411043363901238,-0.34900000000000003
1681411043371601110,-0.309
1681411043379300982,-0.309
1681411043387000854,-0.276
1681411043394700726,-0.222
1681411043402400598,-0.203
1681411043410100470,-0.195
1681411043417800342,-0.214
1681411043425500214,-0.272
1681411043433200086,-0.266
1681411043440899958,-0.20700000000000002
1681411043448599870,-0.176,82
1681411043456300160,-0.13
1681411043464000450,-0.095
1681411043471700740,-0.12
1681411043479401030,-0.128
1681411043487101320,-0.164
1681411043494801610,-0.28
1681411043502501900,-0.32
1681411043510202190,-0.264
1681411043517902480,-0.266
1681411043525602770,-0.297
1681411043533303060,-0.251
1681411043541003350,-0.185
1681411043548703640,-0.17400000000000002
1681411043556403930,-0.20500000000000002
1681411043564104220,-0.212,,698
1681411043571804510,-0.189
1681411043579504800,-0.189
1681411043587205090,-0.228
1681411043594905380,-0.291
1681411043602605670,-0.343
1681411043610305960,-0.357
1681411043618006250,-0.338
1681411043625706540,-0.303
1681411043633406830,-0.261
1681411043641107120,-0.241
1681411043648807410,-0.23700000000000002
1681411043656507700,-0.234
1681411043664207990,-0.253
1681411043671908280,-0.289
1681411043679608570,-0.28200000000000003
1681411043687308860,-0.23900000000000002
1681411043695009150,-0.222
1681411043702709440,-0.241
1681411043710409730,-0.23900000000000002
1681411043718110020,-0.20700000000000002
1681411043725810310,-0.201
1681411043733510600,-0.243
1681411043741210890,-0.266
1681411043748911180,-0.251
1681411043756611470,-0.243
1681411043764311760,-0.249
1681411043772012050,-0.232
1681411043779712340,-0.201
1681411043787412630,-0.195
1681411043795112920,-0.22
1681411043802813210,-0.23900000000000002
1681411043810513500,-0.247
1681411043818213790,-0.27
1681411043825914080,-0.293
1681411043833614370,-0.299
1681411043841314660,-0.291
1681411043849014950,-0.276
1681411043856715240,-0.276
1681411043864415530,-0.297
1681411043872115820,-0.301
1681411043879816110,-0.291
1681411043887516400,-0.307
1681411043895216690,-0.309
1681411043902916980,-0.28
1681411043910617270,-0.293
1681411043918317560,-0.326
1681411043926017850,-0.336
1681411043933718140,-0.324
1681411043941418430,-0.128
1681411043949118720,0.41500000000000004
1681411043956819010,0.937
1681411043964519300,0.686
1681411043972219590,-0.399
1681411043979919880,-1.079
1681411043987620170,-0.646
1681411043995320460,-0.201
1681411044003020750,-0.318
1681411044010721088,-0.353
1681411044018420960,-0.228
1681411044026120832,-0.245
1681411044033820704,-0.28
1681411044041520576,-0.22
1681411044049220448,-0.178
1681411044056920320,-0.17400000000000002
1681411044064620192,-0.176
1681411044072320064,-0.187
1681411044080019936,-0.164
1681411044087719808,-0.14300000000000002
1681411044095419680,-0.189
1681411044103119552,-0.268
1681411044110819424,-0.303
1681411044118519296,-0.307
1681411044126219168,-0.307
1681411044133919040,-0.274
1681411044141618912,-0.214
1681411044149318784,-0.176
1681411044157018656,-0.20700000000000002
1681411044164718528,-0.28600000000000003
1681411044172418400,-0.28600000000000003
1681411044180118272,-0.218
1681411044187818144,-0.203
1681411044195518016,-0.216
1681411044203217888,-0.214
1681411044210917760,-0.22
1681411044218617632,-0.216
1681411044226317504,-0.187
1681411044234017376,-0.168
1681411044241717248,-0.153,,681
1681411044249417120,-0.147
1681411044257116992,-0.193
1681411044264816864,-0.234
1681411044272516736,-0.20500000000000002
1681411044280216608,-0.18
1681411044287916480,-0.17
1681411044295616352,-0.12
1681411044303316224,-0.112
1681411044311016096,-0.168
1681411044318715968,-0.155
1681411044326415840,-0.08700000000000001
1681411044334115712,-0.095
1681411044341815584,-0.139
1681411044349515456,-0.12
1681411044357215328,-0.089
1681411044364915200,-0.093
1681411044372615072,-0.08700000000000001
1681411044380314944,-0.051000000000000004
1681411044388014816,-0.035
1681411044395714688,-0.066
1681411044403414560,-0.11800000000000001
1681411044411114432,-0.149
1681411044418814304,-0.145
1681411044426514176,-0.155
1681411044434214048,-0.18
1681411044441913920,-0.153
1681411044449613792,-0.091
1681411044457313664,-0.128
1681411044465013536,-0.23700000000000002
1681411044472713408,-0.23900000000000002
1681411044480413280,-0.199
1681411044488113152,-0.232
1681411044495813024,-0.23900000000000002
1681411044503512896,-0.21
1681411044511212768,-0.214
1681411044518912640,-0.212
1681411044526612512,-0.199
1681411044534312384,-0.218
1681411044542012256,-0.255
1681411044549712128,-0.28200000000000003
1681411044557412000,-0.272
1681411044565111872,-0.228
1681411044572811784,-0.203,83
1681411044580512074,-0.193
1681411044588212364,-0.17400000000000002
1681411044595912654,-0.168
1681411044603612944,-0.203
1681411044611313234,-0.264
1681411044619013524,-0.14300000000000002
1681411044626713814,0.34
1681411044634414104,0.798
1681411044642114394,0.544
1681411044649814684,-0.494
1681411044657514974,-1.212
1681411044665215264,-0.846
1681411044672915554,-0.392
1681411044680615844,-0.444
1681411044688316134,-0.453
1681411044696016424,-0.34900000000000003
1681411044703716714,-0.34
1681411044711417004,-0.328
1681411044719117294,-0.293
1681411044726817584,-0.295
1681411044734517874,-0.274
1681411044742218164,-0.22
1681411044749918454,-0.203
1681411044757618744,-0.21
1681411044765319034,-0.195
1681411044773019324,-0.162
1681411044780719614,-0.14100000000000001
1681411044788419904,-0.128
1681411044796120194,-0.093
1681411044803820484,-0.064
1681411044811520774,-0.081
1681411044819221064,-0.091
1681411044826921354,-0.056
1681411044834621644,-0.024
1681411044842321934,-0.035
1681411044850022224,-0.051000000000000004
1681411044857722514,-0.056
1681411044865422804,-0.054
1681411044873123094,-0.051000000000000004
1681411044880823384,-0.043000000000000003
1681411044888523674,-0.033
1681411044896223964,-0.064
1681411044903924254,-0.14300000000000002
1681411044911624544,-0.17400000000000002
1681411044919324834,-0.147,,678
1681411044927025124,-0.139
1681411044934725414,-0.155
1681411044942425704,-0.164
1681411044950125994,-0.158
1681411044957826284,-0.158
1681411044965526574,-0.162
1681411044973226864,-0.149
1681411044980927154,-0.116
1681411044988627444,-0.10300000000000001
1681411044996327734,-0.12
1681411045004028024,-0.114
1681411045011728314,-0.076
1681411045019428604,-0.058
1681411045027128894,-0.058
1681411045034829184,-0.047
1681411045042529474,-0.039
1681411045050229764,-0.045
1681411045057930054,-0.047
1681411045065630344,-0.031
1681411045073330634,-0.008
1681411045081030924,-0.012
1681411045088731214,-0.039
1681411045096431504,-0.043000000000000003
1681411045104131794,-0.035
1681411045111832084,-0.106
1681411045119532374,-0.203
1681411045127232664,-0.214
1681411045134932998,-0.197
1681411045142632870,-0.232
1681411045150332742,-0.261
1681411045158032614,-0.232
1681411045165732486,-0.195
1681411045173432358,-0.185
1681411045181132230,-0.197
1681411045188832102,-0.214
1681411045196531974,-0.23700000000000002
1681411045204231846,-0.33
1681411045211931718,-0.43
1681411045219631590,-0.422
1681411045227331462,-0.417
1681411045235031334,-0.49
1681411045242731206,-0.526
1681411045250431078,-0.499
1681411045258130950,-0.467
1681411045265830822,-0.482
1681411045273530694,-0.492
1681411045281230566,-0.291
1681411045288930438,0.259
1681411045296630310,0.808
1681411045304330182,0.6880000000000001
1681411045312030054,-0.276
1681411045319729926,-1.052
1681411045327429798,-0.767
1681411045335129670,-0.291
1681411045342829542,-0.34900000000000003
1681411045350529414,-0.41500000000000004
1681411045358229286,-0.307
1681411045365929158,-0.293
1681411045373629030,-0.303
1681411045381328902,-0.249
1681411045389028774,-0.247
1681411045396728646,-0.278
1681411045404428518,-0.251
1681411045412128390,-0.232
1681411045419828262,-0.23900000000000002
1681411045427528134,-0.201
1681411045435228006,-0.153
1681411045442927878,-0.145
1681411045450627750,-0.137
1681411045458327622,-0.114
1681411045466027494,-0.093
1681411045473727366,-0.083
1681411045481427238,-0.066
1681411045489127110,-0.041
1681411045496826982,-0.031
1681411045504526854,-0.047
1681411045512226726,-0.058
1681411045519926598,-0.041
1681411045527626470,-0.039
1681411045535326342,-0.054
1681411045543026214,-0.054
1681411045550726086,-0.045
1681411045558425958,-0.043000000000000003
1681411045566125830,-0.051000000000000004
1681411045573825702,-0.056
1681411045581525574,-0.049
1681411045589225446,-0.058
1681411045596925318,-0.095
1681411045604625190,-0.10300000000000001,,682
1681411045612325062,-0.074
1681411045620024934,-0.089
1681411045627724806,-0.17
1681411045635424678,-0.232
1681411045643124550,-0.23900000000000002
1681411045650824422,-0.224
1681411045658524294,-0.20700000000000002
1681411045666224166,-0.178
1681411045673924038,-0.14100000000000001
1681411045681623910,-0.13
1681411045689323782,-0.14300000000000002
1681411045697023694,-0.124,84
1681411045704723984,-0.083
1681411045712424274,-0.07
1681411045720124564,-0.07200000000000001
1681411045727824854,-0.06
1681411045735525144,-0.07
1681411045743225434,-0.13
1681411045750925724,-0.17400000000000002
1681411045758626014,-0.149
1681411045766326304,-0.114
1681411045774026594,-0.128
1681411045781726884,-0.17
1681411045789427174,-0.195
1681411045797127464,-0.193
1681411045804827754,-0.185
1681411045812528044,-0.17400000000000002
1681411045820228334,-0.16
1681411045827928624,-0.168
1681411045835628914,-0.185
1681411045843329204,-0.158
1681411045851029494,-0.106
1681411045858729784,-0.085
1681411045866430074,-0.112
1681411045874130364,-0.176
1681411045881830654,-0.272
1681411045889530944,-0.355
1681411045897231234,-0.357
1681411045904931524,-0.313
1681411045912631814,-0.305
1681411045920332104,-0.318
1681411045928032394,-0.316
1681411045935732684,-0.293
1681411045943432974,-0.289
1681411045951133264,-0.266
1681411045958833554,0.008
1681411045966533844,0.592
1681411045974234134,0.989
1681411045981934424,0.519
1681411045989634714,-0.578
1681411045997335004,-0.973
1681411046005035294,-0.434
1681411046012735584,-0.185
1681411046020435874,-0.361
1681411046028136164,-0.307
1681411046035836454,-0.18
1681411046043536744,-0.214
1681411046051237034,-0.222
1681411046058937324,-0.17
1681411046066637614,-0.16
1681411046074337904,-0.16
1681411046082038194,-0.133
1681411046089738484,-0.099
1681411046097438774,-0.08700000000000001
1681411046105139064,-0.095
1681411046112839354,-0.08700000000000001
1681411046120539644,-0.054
1681411046128239934,-0.062
1681411046135940224,-0.11800000000000001
1681411046143640514,-0.135
1681411046151340804,-0.099
1681411046159041094,-0.08700000000000001
1681411046166741384,-0.089
1681411046174441674,-0.068
1681411046182141964,-0.043000000000000003
1681411046189842254,-0.047
1681411046197542544,-0.076
1681411046205242834,-0.079
1681411046212943124,-0.047
1681411046220643414,-0.029
1681411046228343704,-0.029
1681411046236043994,-0.027
1681411046243744284,-0.035
1681411046251444574,-0.062
1681411046259144908,-0.074
1681411046266844780,-0.062,,666
1681411046274544652,-0.049
1681411046282244524,-0.062
1681411046289944396,-0.08700000000000001
1681411046297644268,-0.081
1681411046305344140,-0.056
1681411046313044012,-0.08700000000000001
1681411046320743884,-0.139
1681411046328443756,-0.124
1681411046336143628,-0.097
1681411046343843500,-0.114
1681411046351543372,-0.108
1681411046359243244,-0.064
1681411046366943116,-0.047
1681411046374642988,-0.081
1681411046382342860,-0.116
1681411046390042732,-0.101
1681411046397742604,-0.076
1681411046405442476,-0.076
1681411046413142348,-0.07200000000000001
1681411046420842220,-0.049
1681411046428542092,-0.049
1681411046436241964,-0.07200000000000001
1681411046443941836,-0.066
1681411046451641708,-0.037
1681411046459341580,-0.031
1681411046467041452,-0.074
1681411046474741324,-0.122
1681411046482441196,-0.116
1681411046490141068,-0.099
1681411046497840940,-0.106
1681411046505540812,-0.095
1681411046513240684,-0.076
1681411046520940556,-0.095
1681411046528640428,-0.116
1681411046536340300,-0.097
1681411046544040172,-0.097
1681411046551740044,-0.137
1681411046559439916,-0.147
1681411046567139788,-0.147
1681411046574839660,-0.17
1681411046582539532,-0.195
1681411046590239404,-0.222
1681411046597939276,-0.23
1681411046605639148,-0.203
1681411046613339020,-0.21
1681411046621038892,-0.257
1681411046628738764,-0.291
1681411046636438636,-0.336
1681411046644138508,-0.399
1681411046651838380,-0.422
1681411046659538252,-0.361
1681411046667238124,-0.051000000000000004
1681411046674937996,0.54
1681411046682637868,0.916
1681411046690337740,0.43
1681411046698037612,-0.659
1681411046705737484,-1.043
1681411046713437356,-0.503
1681411046721137228,-0.20700000000000002
1681411046728837100,-0.343
1681411046736536972,-0.324
1681411046744236844,-0.23
1681411046751936716,-0.245
1681411046759636588,-0.243
1681411046767336460,-0.203
1681411046775036332,-0.18
1681411046782736204,-0.147
1681411046790436076,-0.13
1681411046798135948,-0.147
1681411046805835820,-0.137
1681411046813535692,-0.093
1681411046821235604,-0.076,85
1681411046828935476,-0.074
1681411046836635348,-0.054
1681411046844335220,-0.045
1681411046852035092,-0.085
1681411046859734964,-0.145
1681411046867434836,-0.178
1681411046875134708,-0.178
1681411046882834580,-0.185
1681411046890534452,-0.21
1681411046898234324,-0.203
1681411046905934196,-0.176
1681411046913634068,-0.17200000000000001
1681411046921333940,-0.17
1681411046929033812,-0.14100000000000001
1681411046936733684,-0.126
1681411046944433556,-0.137,,676
1681411046952133428,-0.135
1681411046959833300,-0.124
1681411046967533172,-0.137
1681411046975233044,-0.162
1681411046982932916,-0.185
1681411046990632788,-0.189
1681411046998332660,-0.178
1681411047006032532,-0.176
1681411047013732404,-0.158
1681411047021432276,-0.101
1681411047029132148,-0.031
1681411047036832020,0.02
1681411047044531892,0.031
1681411047052231764,0.035
1681411047059931636,0.045
1681411047067631508,0.037
1681411047075331380,0.018000000000000002
1681411047083031252,0.02
1681411047090731124,0.031
1681411047098430996,0.022
1681411047106130868,0.016
1681411047113830740,-0.012
1681411047121530612,-0.07
1681411047129230484,-0.11
1681411047136930356,-0.17400000000000002
1681411047144630228,-0.264
1681411047152330100,-0.276
1681411047160029972,-0.251
1681411047167729844,-0.274
1681411047175429716,-0.276
1681411047183129588,-0.23700000000000002
1681411047190829460,-0.243
1681411047198529332,-0.299
1681411047206229204,-0.343
1681411047213929076,-0.33
1681411047221628948,-0.307
1681411047229328820,-0.32
1681411047237028692,-0.305
1681411047244728564,-0.268
1681411047252428436,-0.257
1681411047260128308,-0.255
1681411047267828180,-0.255
1681411047275528052,-0.261
1681411047283227924,-0.255
1681411047290927796,-0.23
1681411047298627668,-0.22
1681411047306327540,-0.228
1681411047314027412,-0.20700000000000002
1681411047321727284,-0.164
1681411047329427156,-0.168
1681411047337127028,-0.21
1681411047344826900,-0.21
1681411047352526772,-0.21
1681411047360226644,-0.266
1681411047367926516,-0.305
1681411047375626388,-0.266
1681411047383326304,-0.226,86
1681411047391026176,-0.241
1681411047398726048,-0.272
1681411047406425920,-0.195
1681411047414125792,0.17200000000000001
1681411047421825664,0.723
1681411047429525536,0.935
1681411047437225408,0.293
1681411047444925280,-0.744
1681411047452625152,-0.937
1681411047460325024,-0.41300000000000003
1681411047468024896,-0.23700000000000002
1681411047475724768,-0.33
1681411047483424640,-0.278
1681411047491124512,-0.23900000000000002
1681411047498824384,-0.253
1681411047506524256,-0.20700000000000002
1681411047514224128,-0.166
1681411047521924000,-0.162
1681411047529623872,-0.14300000000000002
1681411047537323744,-0.13
1681411047545023616,-0.133
1681411047552723488,-0.108
1681411047560423360,-0.068
1681411047568123232,-0.051000000000000004
1681411047575823104,-0.054
1681411047583522976,-0.047
1681411047591222848,-0.024
1681411047598922720,-0.002
1681411047606622592,-0.016
1681411047614322464,-0.033
1681411047622022336,-0.016,,678
1681411047629722208,-0.014
1681411047637422080,-0.051000000000000004
1681411047645121952,-0.10300000000000001
1681411047652821824,-0.162
1681411047660521696,-0.18
1681411047668221568,-0.168
1681411047675921440,-0.166
1681411047683621312,-0.17400000000000002
1681411047691321184,-0.176
1681411047699021056,-0.145
1681411047706720928,-0.112
1681411047714420800,-0.137
1681411047722120672,-0.20500000000000002
1681411047729820544,-0.23900000000000002
1681411047737520416,-0.17400000000000002
1681411047745220288,-0.099
1681411047752920160,-0.116
1681411047760620032,-0.139
1681411047768319904,-0.116
1681411047776019776,-0.099
1681411047783719648,-0.095
1681411047791419520,-0.081
1681411047799119392,-0.056
1681411047806819264,-0.068
1681411047814519136,-0.11800000000000001
1681411047822219008,-0.133
1681411047829918880,-0.095
1681411047837618752,-0.068
1681411047845318624,-0.07200000000000001
1681411047853018496,-0.108
1681411047860718368,-0.149
1681411047868418240,-0.16
1681411047876118112,-0.151
1681411047883817984,-0.14300000000000002
1681411047891517856,-0.168
1681411047899217728,-0.214
1681411047906917600,-0.23700000000000002
1681411047914617472,-0.257
1681411047922317344,-0.274
1681411047930017216,-0.257
1681411047937717088,-0.241
1681411047945417000,-0.241
1681411047953117081,-0.241
1681411047960817162,-0.251
1681411047968517243,-0.299
1681411047976217324,-0.318
1681411047983917405,-0.226
1681411047991617486,-0.168
1681411047999317567,-0.23
1681411048007017648,-0.255
1681411048014717729,-0.234
1681411048022417810,-0.295
1681411048030117891,-0.382
1681411048037817972,-0.39
1681411048045518053,-0.343
1681411048053218134,-0.355
1681411048060918215,-0.372
1681411048068618296,-0.297
1681411048076318377,-0.228
1681411048084018458,-0.259
1681411048091718539,-0.332
1681411048099418620,-0.363
1681411048107118701,-0.328
1681411048114818782,-0.278
1681411048122518863,-0.255
1681411048130218944,-0.23
1681411048137919025,-0.234
1681411048145619106,-0.334
1681411048153319187,-0.40700000000000003
1681411048161019268,-0.23900000000000002
1681411048168719349,0.234
1681411048176419430,0.773
1681411048184119511,0.862
1681411048191819592,0.11800000000000001
1681411048199519673,-0.8290000000000001
1681411048207219754,-0.8230000000000001
1681411048214919835,-0.255
1681411048222619916,-0.158
1681411048230319997,-0.257
1681411048238020078,-0.153
1681411048245720159,-0.085
1681411048253420240,-0.099
1681411048261120321,-0.085
1681411048268820402,-0.074
1681411048276520483,-0.07200000000000001
1681411048284220564,-0.043000000000000003,,663
1681411048291920645,-0.024
1681411048299620726,-0.024
1681411048307320807,0.004
1681411048315020888,0.037
1681411048322720969,0.022
1681411048330421050,0.012
1681411048338121131,0.035
1681411048345821212,0.027
1681411048353521293,-0.012
1681411048361221374,-0.014
1681411048368921455,0.01
1681411048376621536,0.02
1681411048384321617,0.02
1681411048392021698,0.022
1681411048399721779,0.039
1681411048407421860,0.041
1681411048415121941,0.008
1681411048422822022,-0.008
1681411048430522103,0.022
1681411048438222184,0.047
1681411048445922265,0.031
1681411048453622346,0.008
1681411048461322427,-0.002
1681411048469022508,-0.006
1681411048476722589,-0.018000000000000002
1681411048484422670,-0.047
1681411048492122751,-0.068
1681411048499822832,-0.081
1681411048507522956,-0.099,86
1681411048515223037,-0.099
1681411048522923118,-0.07
1681411048530623199,-0.056
1681411048538323280,-0.062
1681411048546023361,-0.049
1681411048553723442,-0.047
1681411048561423523,-0.10300000000000001
1681411048569123604,-0.187
1681411048576823685,-0.20500000000000002
1681411048584523766,-0.199
1681411048592223847,-0.272
1681411048599923928,-0.322
1681411048607624009,-0.278
1681411048615324090,-0.245
1681411048623024171,-0.257
1681411048630724252,-0.253
1681411048638424333,-0.23700000000000002
1681411048646124414,-0.28400000000000003
1681411048653824495,-0.378
1681411048661524576,-0.384
1681411048669224657,-0.32
1681411048676924738,-0.299
1681411048684624819,-0.316
1681411048692324900,-0.311
1681411048700024981,-0.28600000000000003
1681411048707725062,-0.261
1681411048715425143,-0.253
1681411048723125224,-0.241
1681411048730825305,-0.214
1681411048738525386,-0.214
1681411048746225467,-0.226
1681411048753925548,-0.20500000000000002
1681411048761625629,-0.168
1681411048769325710,-0.155
1681411048777025791,-0.16
1681411048784725872,-0.162
1681411048792425953,-0.147
1681411048800126034,-0.135
1681411048807826115,-0.13
1681411048815526196,-0.11800000000000001
1681411048823226277,-0.101
1681411048830926358,-0.11800000000000001
1681411048838626439,-0.151
1681411048846326520,-0.14100000000000001
1681411048854026601,-0.089
1681411048861726682,-0.056
1681411048869426763,-0.06
1681411048877126844,-0.081
1681411048884826925,-0.10300000000000001
1681411048892527006,-0.099
1681411048900227087,-0.079
1681411048907927168,-0.056
1681411048915627249,-0.045
1681411048923327330,-0.058
1681411048931027411,-0.064
1681411048938727492,-0.049
1681411048946427573,-0.041
1681411048954127654,0.097
1681411048961827735,0.551,,675
1681411048969527816,1.066
1681411048977227897,1.01
1681411048984927978,0.112
1681411048992628059,-0.711
1681411049000328140,-0.482
1681411049008028221,0.014
1681411049015728302,-0.058
1681411049023428383,-0.162
1681411049031128464,-0.029
1681411049038828545,0.006
1681411049046528626,-0.035
1681411049054228707,-0.002
1681411049061928788,0.024
1681411049069628910,0.006
1681411049077328782,-0.01
1681411049085028654,-0.035
1681411049092728526,-0.051000000000000004
1681411049100428398,-0.041
1681411049108128270,-0.045
1681411049115828142,-0.033
1681411049123528014,0.01
1681411049131227886,-0.014
1681411049138927758,-0.07
1681411049146627630,-0.074
1681411049154327502,-0.139
1681411049162027374,-0.243
1681411049169727246,-0.232
1681411049177427118,-0.178
1681411049185126990,-0.17200000000000001
1681411049192826862,-0.182
1681411049200526734,-0.199
1681411049208226606,-0.195
1681411049215926478,-0.166
1681411049223626350,-0.164
1681411049231326222,-0.199
1681411049239026094,-0.232
1681411049246725966,-0.266
1681411049254425838,-0.32
1681411049262125710,-0.338
1681411049269825582,-0.311
1681411049277525454,-0.303
1681411049285225326,-0.324
1681411049292925198,-0.336
1681411049300625070,-0.316
1681411049308324942,-0.289
1681411049316024814,-0.278
1681411049323724686,-0.28400000000000003
1681411049331424558,-0.316
1681411049339124430,-0.35100000000000003
1681411049346824302,-0.34700000000000003
1681411049354524174,-0.301
1681411049362224046,-0.255
1681411049369923918,-0.249
1681411049377623790,-0.257
1681411049385323662,-0.23
1681411049393023534,-0.197
1681411049400723406,-0.226
1681411049408423278,-0.243
1681411049416123150,-0.166
1681411049423823022,-0.124
1681411049431522894,-0.17
1681411049439222766,-0.187
1681411049446922638,-0.145
1681411049454622510,-0.12
1681411049462322382,-0.128
1681411049470022254,-0.14300000000000002
1681411049477722126,-0.139
1681411049485421998,-0.12
1681411049493121870,-0.114
1681411049500821742,-0.116
1681411049508521614,-0.089
1681411049516221486,-0.07200000000000001
1681411049523921358,-0.095
1681411049531621230,-0.099
1681411049539321102,-0.07200000000000001
1681411049547020974,-0.066
1681411049554720846,-0.068
1681411049562420718,-0.06
1681411049570120590,-0.07
1681411049577820462,-0.114
1681411049585520334,-0.145
1681411049593220206,-0.124
1681411049600920078,-0.093
1681411049608619950,-0.091
1681411049616319822,-0.116
1681411049624019694,-0.153
1681411049631719606,-0.13,86
1681411049639420732,-0.041
1681411049647121858,-0.008
1681411049654822984,-0.037
1681411049662524110,-0.091
1681411049670225236,-0.201,,708
1681411049677926362,-0.297
1681411049685627488,-0.28600000000000003
1681411049693328614,-0.234
1681411049701029740,-0.23
1681411049708730866,-0.247
1681411049716431992,-0.224
1681411049724133118,-0.187
1681411049731834244,-0.193
1681411049739535370,-0.21
1681411049747236496,-0.083
1681411049754937622,0.343
1681411049762638748,0.881
1681411049770339874,0.9520000000000001
1681411049778041000,0.133
1681411049785742126,-0.798
1681411049793443252,-0.6980000000000001
1681411049801144378,-0.166
1681411049808845504,-0.14100000000000001
1681411049816546630,-0.234
1681411049824247756,-0.182
1681411049831948882,-0.203
1681411049839650008,-0.232
1681411049847351134,-0.197
1681411049855052260,-0.195
1681411049862753386,-0.197
1681411049870454512,-0.155
1681411049878155638,-0.126
1681411049885856764,-0.135
1681411049893557890,-0.137
1681411049901259016,-0.128
1681411049908960142,-0.149
1681411049916661268,-0.18
1681411049924362394,-0.191
1681411049932063520,-0.197
1681411049939764646,-0.203
1681411049947465772,-0.201
1681411049955166898,-0.185
1681411049962868024,-0.168
1681411049970569150,-0.17200000000000001
1681411049978270276,-0.191
1681411049985971402,-0.203
1681411049993672528,-0.199
1681411050001373654,-0.201
1681411050009074780,-0.20700000000000002
1681411050016775906,-0.191
1681411050024477032,-0.17400000000000002
1681411050032178158,-0.197
1681411050039879284,-0.22
1681411050047580410,-0.20500000000000002
1681411050055281536,-0.191
1681411050062982662,-0.212
1681411050070683788,-0.255
1681411050078384914,-0.28600000000000003
1681411050086086040,-0.276
1681411050093787166,-0.264
1681411050101488292,-0.259
1681411050109189418,-0.222
1681411050116890544,-0.195
1681411050124591670,-0.212
1681411050132292796,-0.20700000000000002
1681411050139993922,-0.16
1681411050147695048,-0.133
1681411050155396174,-0.14100000000000001
1681411050163097300,-0.185
1681411050170798426,-0.255
1681411050178499552,-0.272
1681411050186200678,-0.23700000000000002
1681411050193901858,-0.216
1681411050201600894,-0.193
1681411050209299930,-0.176
1681411050216998966,-0.197
1681411050224698002,-0.197
1681411050232397038,-0.164
1681411050240096074,-0.178
1681411050247795110,-0.23700000000000002
1681411050255494146,-0.245
1681411050263193182,-0.22
1681411050270892218,-0.222
1681411050278591254,-0.226
1681411050286290290,-0.193
1681411050293989326,-0.16
1681411050301688362,-0.162
1681411050309387398,-0.203
1681411050317086434,-0.247
1681411050324785470,-0.255
1681411050332484506,-0.222
1681411050340183542,-0.191
1681411050347882578,-0.18
1681411050355581614,-0.178
1681411050363280650,-0.178
1681411050370979686,-0.168
1681411050378678722,-0.147
1681411050386377758,-0.128
1681411050394076794,-0.124
1681411050401775830,-0.112
1681411050409474866,-0.076
1681411050417173902,-0.035,,745
1681411050424872938,-0.035
1681411050432571974,-0.066
1681411050440271010,-0.07200000000000001
1681411050447970046,-0.064
1681411050455669082,-0.074
1681411050463368118,-0.07200000000000001
1681411050471067154,-0.037
1681411050478766190,-0.018000000000000002
1681411050486465226,-0.037
1681411050494164262,-0.066
1681411050501863298,-0.022
1681411050509562334,0.268
1681411050517261370,0.812
1681411050524960406,1.162
1681411050532659442,0.686
1681411050540358478,-0.436
1681411050548057514,-0.869
1681411050555756550,-0.336
1681411050563455586,-0.093
1681411050571154622,-0.293
1681411050578853658,-0.268
1681411050586552694,-0.166
1681411050594251730,-0.193
1681411050601950766,-0.193
1681411050609649802,-0.166
1681411050617348838,-0.187
1681411050625047874,-0.201
1681411050632746910,-0.222
1681411050640445946,-0.251
1681411050648144982,-0.226
1681411050655844018,-0.187
1681411050663543054,-0.193
1681411050671242090,-0.266
1681411050678941126,-0.386
1681411050686640162,-0.432
1681411050694339198,-0.34
1681411050702038234,-0.234
1681411050709737270,-0.224
1681411050717436306,-0.28
1681411050725135342,-0.334
1681411050732834378,-0.322
1681411050740533414,-0.259
1681411050748232450,-0.203
1681411050755931520,-0.139,85
1681411050763631392,-0.114
1681411050771331264,-0.14100000000000001
1681411050779031136,-0.13
1681411050786731008,-0.128
1681411050794430880,-0.16
1681411050802130752,-0.16
1681411050809830624,-0.195
1681411050817530496,-0.272
1681411050825230368,-0.276
1681411050832930240,-0.23700000000000002
1681411050840630112,-0.261
1681411050848329984,-0.318
1681411050856029856,-0.313
1681411050863729728,-0.28200000000000003
1681411050871429600,-0.28400000000000003
1681411050879129472,-0.274
1681411050886829344,-0.23
1681411050894529216,-0.193
1681411050902229088,-0.191
1681411050909928960,-0.197
1681411050917628832,-0.17400000000000002
1681411050925328704,-0.135
1681411050933028576,-0.124
1681411050940728448,-0.12
1681411050948428320,-0.099
1681411050956128192,-0.097
1681411050963828064,-0.122
1681411050971527936,-0.124
1681411050979227808,-0.093
1681411050986927680,-0.07200000000000001
1681411050994627552,-0.083
1681411051002327424,-0.099
1681411051010027296,-0.08700000000000001
1681411051017727168,-0.066
1681411051025427040,-0.066
1681411051033126912,-0.062
1681411051040826784,-0.039
1681411051048526656,-0.054
1681411051056226528,-0.097
1681411051063926400,-0.101
1681411051071626272,-0.06
1681411051079326144,-0.045
1681411051087026016,-0.06
1681411051094725888,-0.062
1681411051102425760,-0.045
1681411051110125632,-0.037
1681411051117825504,-0.043000000000000003
1681411051125525376,-0.02
1681411051133225248,0.022
1681411051140925120,0.033
1681411051148624992,0.027
1681411051156324864,0.047
1681411051164024736,0.045,,753
1681411051171724608,0.008
1681411051179424480,-0.045
1681411051187124352,-0.101
1681411051194824224,-0.10300000000000001
1681411051202524096,-0.074
1681411051210223968,-0.068
1681411051217923840,-0.051000000000000004
1681411051225623712,-0.049
1681411051233323584,-0.062
1681411051241023456,0.145
1681411051248723328,0.704
1681411051256423200,1.185
1681411051264123072,0.9
1681411051271822944,-0.16
1681411051279522816,-0.8170000000000001
1681411051287222688,-0.422
1681411051294922560,-0.037
1681411051302622432,-0.195
1681411051310322304,-0.243
1681411051318022216,-0.116
1681411051325722297,-0.14300000000000002
1681411051333422378,-0.178
1681411051341122459,-0.106
1681411051348822540,-0.079
1681411051356522621,-0.124
1681411051364222702,-0.149
1681411051371922783,-0.164
1681411051379622864,-0.226
1681411051387322945,-0.297
1681411051395023026,-0.28200000000000003
1681411051402723107,-0.249
1681411051410423188,-0.324
1681411051418123269,-0.40900000000000003
1681411051425823350,-0.324
1681411051433523431,-0.214
1681411051441223512,-0.23
1681411051448923593,-0.23900000000000002
1681411051456623674,-0.191
1681411051464323755,-0.191
1681411051472023836,-0.218
1681411051479723917,-0.23900000000000002
1681411051487423998,-0.234
1681411051495124079,-0.17
1681411051502824160,-0.17
1681411051510524241,-0.28400000000000003
1681411051518224322,-0.33
1681411051525924403,-0.278
1681411051533624484,-0.276
1681411051541324565,-0.326
1681411051549024646,-0.359
1681411051556724727,-0.382
1681411051564424808,-0.384
1681411051572124889,-0.357
1681411051579824970,-0.322
1681411051587525051,-0.295
1681411051595225132,-0.291
1681411051602925213,-0.28600000000000003
1681411051610625294,-0.257
1681411051618325375,-0.224
1681411051626025456,-0.214
1681411051633725537,-0.195
1681411051641425618,-0.164
1681411051649125699,-0.16
1681411051656825780,-0.168
1681411051664525861,-0.145
1681411051672225942,-0.112
1681411051679926023,-0.122
1681411051687626104,-0.191
1681411051695326185,-0.23700000000000002
1681411051703026266,-0.20500000000000002
1681411051710726347,-0.176
1681411051718426428,-0.185
1681411051726126509,-0.164
1681411051733826590,-0.135
1681411051741526671,-0.149
1681411051749226752,-0.164
1681411051756926833,-0.133
1681411051764626914,-0.10300000000000001
1681411051772326995,-0.10300000000000001
1681411051780027076,-0.108
1681411051787727157,-0.13
1681411051795427238,-0.17400000000000002
1681411051803127319,-0.187
1681411051810827400,-0.162
1681411051818527481,-0.139
1681411051826227562,-0.133
1681411051833927643,-0.147
1681411051841627724,-0.151
1681411051849327805,-0.11
1681411051857027886,-0.058
1681411051864727967,0.004
1681411051872428048,0.099
1681411051880128172,0.128,84
1681411051887828253,0.049
1681411051895528334,0.002
1681411051903228415,0.031
1681411051910928496,0.049
1681411051918628577,0.035
1681411051926328658,0.008
1681411051934028739,0.006
1681411051941728820,0.029
1681411051949428901,-0.002
1681411051957128982,-0.043000000000000003,,791
1681411051964829063,0.226
1681411051972529144,0.837
1681411051980229225,1.183
1681411051987929306,0.615
1681411051995629387,-0.48
1681411052003329468,-0.781
1681411052011029549,-0.245
1681411052018729630,-0.051000000000000004
1681411052026429711,-0.218
1681411052034129792,-0.20500000000000002
1681411052041829873,-0.193
1681411052049529954,-0.259
1681411052057230035,-0.228
1681411052064930116,-0.182
1681411052072630197,-0.203
1681411052080330278,-0.195
1681411052088030359,-0.14300000000000002
1681411052095730440,-0.124
1681411052103430521,-0.14300000000000002
1681411052111130602,-0.17200000000000001
1681411052118830683,-0.189
1681411052126530764,-0.197
1681411052134230845,-0.214
1681411052141930926,-0.212
1681411052149631007,-0.18
1681411052157331088,-0.182
1681411052165031169,-0.197
1681411052172731250,-0.193
1681411052180431331,-0.212
1681411052188131412,-0.255
1681411052195831493,-0.297
1681411052203531574,-0.328
1681411052211231655,-0.301
1681411052218931736,-0.257
1681411052226631817,-0.261
1681411052234331898,-0.249
1681411052242031979,-0.22
1681411052249732060,-0.243
1681411052257432141,-0.28
1681411052265132222,-0.276
1681411052272832303,-0.261
1681411052280532384,-0.272
1681411052288232465,-0.309
1681411052295932546,-0.382
1681411052303632627,-0.399
1681411052311332708,-0.297
1681411052319032789,-0.224
1681411052326732870,-0.228
1681411052334432951,-0.212
1681411052342133032,-0.203
1681411052349833113,-0.216
1681411052357533194,-0.182
1681411052365233275,-0.145
1681411052372933356,-0.145
1681411052380633437,-0.137
1681411052388333518,-0.126
1681411052396033599,-0.13
1681411052403733680,-0.122
1681411052411433761,-0.097
1681411052419133842,-0.083
1681411052426833923,-0.083
1681411052434534004,-0.097
1681411052442234126,-0.099,83
1681411052449933998,-0.079
1681411052457633870,-0.062
1681411052465333742,-0.064
1681411052473033614,-0.068
1681411052480733486,-0.07200000000000001
1681411052488433358,-0.095
1681411052496133230,-0.14300000000000002
1681411052503833102,-0.168
1681411052511532974,-0.14300000000000002
1681411052519232846,-0.122
1681411052526932718,-0.147
1681411052534632590,-0.187
1681411052542332462,-0.187
1681411052550032334,-0.149
1681411052557732206,-0.11800000000000001
1681411052565432078,-0.099
1681411052573131950,-0.083
1681411052580831822,-0.099
1681411052588531694,-0.13
1681411052596231566,-0.114
1681411052603931438,-0.068
1681411052611631310,-0.07
1681411052619331182,-0.097
1681411052627031054,-0.083
1681411052634730926,-0.051000000000000004
1681411052642430798,-0.058
1681411052650130670,-0.076
1681411052657830542,0.039
1681411052665530414,0.453
1681411052673230286,0.981
1681411052680930158,1.039
1681411052688630030,0.224
1681411052696329902,-0.75
1681411052704029774,-0.746
1681411052711729646,-0.234
1681411052719429518,-0.168
1681411052727129390,-0.251
1681411052734829262,-0.166
1681411052742529134,-0.122
1681411052750229006,-0.135,,794
1681411052757928878,-0.112
1681411052765628750,-0.099
1681411052773328622,-0.11800000000000001
1681411052781028494,-0.13
1681411052788728366,-0.13
1681411052796428238,-0.126
1681411052804128110,-0.122
1681411052811827982,-0.106
1681411052819527854,-0.095
1681411052827227726,-0.116
1681411052834927598,-0.11
1681411052842627470,-0.076
1681411052850327342,-0.076
1681411052858027214,-0.091
1681411052865727086,-0.068
1681411052873426958,-0.041
1681411052881126830,-0.045
1681411052888826702,-0.062
1681411052896526574,-0.081
1681411052904226446,-0.116
1681411052911926318,-0.155
1681411052919626190,-0.191
1681411052927326062,-0.214
1681411052935025934,-0.216
1681411052942725806,-0.23700000000000002
1681411052950425678,-0.268
1681411052958125550,-0.268
1681411052965825422,-0.266
1681411052973525294,-0.28600000000000003
1681411052981225166,-0.299
1681411052988925038,-0.295
1681411052996624910,-0.293
1681411053004324822,-0.289
1681411053012024694,-0.293
1681411053019724566,-0.336
1681411053027424438,-0.417
1681411053035124310,-0.449
1681411053042824182,-0.417
1681411053050524054,-0.438
1681411053058223926,-0.486
1681411053065923798,-0.447
1681411053073623670,-0.386
1681411053081323542,-0.361
1681411053089023414,-0.307
1681411053096723286,-0.22
1681411053104423158,-0.164
1681411053112123030,-0.158
1681411053119822902,-0.162
1681411053127522774,-0.178
1681411053135222646,-0.18
1681411053142922518,-0.164
1681411053150622390,-0.193
1681411053158322262,-0.232
1681411053166022134,-0.20500000000000002
1681411053173722006,-0.14300000000000002
1681411053181421878,-0.106
1681411053189121750,-0.11
1681411053196821622,-0.151
1681411053204521494,-0.251
1681411053212221366,-0.374
1681411053219921238,-0.405
1681411053227621110,-0.34700000000000003
1681411053235320982,-0.28200000000000003
1681411053243020854,-0.249
1681411053250720726,-0.234
1681411053258420598,-0.203
1681411053266120470,-0.203
1681411053273820342,-0.293
1681411053281520214,-0.332
1681411053289220086,-0.255
1681411053296919958,-0.155
1681411053304619830,-0.101
1681411053312319702,-0.097
1681411053320019574,-0.10300000000000001
1681411053327719446,-0.091
1681411053335419318,-0.101
1681411053343119190,-0.106
1681411053350819062,0.101
1681411053358518934,0.63
1681411053366218806,1.12
1681411053373918678,0.927
1681411053381618550,-0.068
1681411053389318422,-0.777
1681411053397018294,-0.436
1681411053404718166,-0.012
1681411053412418038,-0.114
1681411053420117910,-0.155
1681411053427817782,-0.041
1681411053435517654,-0.037
1681411053443217526,-0.047
1681411053450917398,-0.02
1681411053458617270,-0.024
1681411053466317142,-0.014
1681411053474017014,0.027
1681411053481716886,0.039
1681411053489416758,0.029
1681411053497116630,0.031
1681411053504816502,0.051000000000000004
1681411053512516374,0.056,,758
1681411053520216246,0.031
1681411053527916118,0.029
1681411053535615990,0.056
1681411053543315862,0.049
1681411053551015734,0.037
1681411053558715606,0.068
1681411053566415518,0.091,82
1681411053574115390,0.079
1681411053581815262,0.062
1681411053589515134,0.051000000000000004
1681411053597215006,0.027
1681411053604914878,-0.029
1681411053612614750,-0.091
1681411053620314622,-0.108
1681411053628014494,-0.112
1681411053635714366,-0.145
1681411053643414238,-0.166
1681411053651114110,-0.145
1681411053658813982,-0.14300000000000002
1681411053666513854,-0.164
1681411053674213726,-0.168
1681411053681913598,-0.164
1681411053689613470,-0.178
1681411053697313342,-0.21
1681411053705013214,-0.226
1681411053712713086,-0.261
1681411053720412958,-0.357
1681411053728112830,-0.40900000000000003
1681411053735812702,-0.361
1681411053743512574,-0.316
1681411053751212446,-0.303
1681411053758912318,-0.301
1681411053766612190,-0.326
1681411053774312062,-0.34900000000000003
1681411053782011934,-0.336
1681411053789711806,-0.318
1681411053797411678,-0.297
1681411053805111550,-0.268
1681411053812811422,-0.268
1681411053820511294,-0.28200000000000003
1681411053828211166,-0.268
1681411053835911038,-0.23700000000000002
1681411053843610910,-0.232
1681411053851310782,-0.226
1681411053859010654,-0.20500000000000002
1681411053866710526,-0.201
1681411053874410398,-0.214
1681411053882110270,-0.199
1681411053889810142,-0.166
1681411053897510014,-0.149
1681411053905209886,-0.155
1681411053912909758,-0.162
1681411053920609630,-0.147
1681411053928309502,-0.128
1681411053936009374,-0.133
1681411053943709246,-0.128
1681411053951409118,-0.101
1681411053959108990,-0.08700000000000001
1681411053966808862,-0.091
1681411053974508734,-0.068
1681411053982208606,-0.039
1681411053989908478,-0.064
1681411053997608350,-0.112
1681411054005308222,-0.135
1681411054013008094,-0.16
1681411054020707966,-0.17200000000000001
1681411054028407838,-0.155
1681411054036107710,-0.126
1681411054043807582,-0.116
1681411054051507454,-0.147
1681411054059207326,-0.14300000000000002
1681411054066907198,0.14300000000000002
1681411054074607070,0.733
1681411054082306942,1.145
1681411054090006814,0.733
1681411054097706686,-0.34500000000000003
1681411054105406558,-0.8270000000000001
1681411054113106430,-0.338
1681411054120806302,-0.014
1681411054128506218,-0.14300000000000002
1681411054136206090,-0.133
1681411054143905962,-0.051000000000000004
1681411054151605834,-0.089
1681411054159305706,-0.074
1681411054167005578,-0.01
1681411054174705450,-0.014
1681411054182405322,-0.027
1681411054190105194,-0.008
1681411054197805066,-0.014
1681411054205504938,-0.064
1681411054213204810,-0.116
1681411054220904682,-0.16
1681411054228604554,-0.189
1681411054236304426,-0.185
1681411054244004298,-0.158,,733
1681411054251704170,-0.145
1681411054259404042,-0.166
1681411054267103914,-0.17400000000000002
1681411054274803786,-0.147
1681411054282503658,-0.13
1681411054290203530,-0.137
1681411054297903402,-0.133
1681411054305603274,-0.126
1681411054313303146,-0.137
1681411054321003018,-0.137
1681411054328702890,-0.116
1681411054336402762,-0.116
1681411054344102634,-0.099
1681411054351802506,-0.056
1681411054359502378,-0.07
1681411054367202250,-0.112
1681411054374902122,-0.14300000000000002
1681411054382601994,-0.189
1681411054390301866,-0.201
1681411054398001738,-0.17200000000000001
1681411054405701610,-0.155
1681411054413401482,-0.164
1681411054421101354,-0.17200000000000001
1681411054428801226,-0.158
1681411054436501098,-0.128
1681411054444200970,-0.122
1681411054451900842,-0.145
1681411054459600714,-0.166
1681411054467300586,-0.187
1681411054475000458,-0.22
1681411054482700330,-0.23700000000000002
1681411054490400202,-0.214
1681411054498100074,-0.22
1681411054505799946,-0.266
1681411054513499818,-0.28
1681411054521199690,-0.251
1681411054528899562,-0.23700000000000002
1681411054536599434,-0.243
1681411054544299306,-0.228
1681411054551999178,-0.20500000000000002
1681411054559699050,-0.216
1681411054567398922,-0.23
1681411054575098794,-0.20500000000000002
1681411054582798666,-0.17400000000000002
1681411054590498538,-0.168
1681411054598198410,-0.176
1681411054605898282,-0.17400000000000002
1681411054613598154,-0.16
1681411054621298026,-0.149
1681411054628997898,-0.145
1681411054636697770,-0.13
1681411054644397642,-0.11
1681411054652097514,-0.124
1681411054659797386,-0.14300000000000002
1681411054667497258,-0.12
1681411054675197130,-0.095
1681411054682897002,-0.093
1681411054690596914,-0.08700000000000001,82
1681411054698297204,-0.064
1681411054705997494,-0.033
1681411054713697784,-0.01
1681411054721398074,-0.051000000000000004
1681411054729098364,-0.151
1681411054736798654,-0.182
1681411054744498944,-0.178
1681411054752199234,-0.218
1681411054759899524,-0.22
1681411054767599814,-0.193
1681411054775300104,-0.234
1681411054783000394,-0.293
1681411054790700684,-0.301
1681411054798400974,-0.218
1681411054806101264,0.145
1681411054813801554,0.744
1681411054821501844,1.0
1681411054829202134,0.336
1681411054836902424,-0.717
1681411054844602714,-0.86
1681411054852303004,-0.274
1681411054860003294,-0.114
1681411054867703584,-0.259
1681411054875403874,-0.187
1681411054883104164,-0.11
1681411054890804454,-0.151
1681411054898504744,-0.14100000000000001
1681411054906205034,-0.08700000000000001
1681411054913905324,-0.068
1681411054921605614,-0.07
1681411054929305904,-0.076
1681411054937006194,-0.066
1681411054944706484,-0.029
1681411054952406774,-0.008
1681411054960107064,-0.018000000000000002
1681411054967807354,-0.012,,722
1681411054975507644,0.004
1681411054983207934,0.0
1681411054990908224,-0.031
1681411054998608514,-0.06
1681411055006308804,-0.091
1681411055014009094,-0.093
1681411055021709384,-0.054
1681411055029409674,-0.041
1681411055037109964,-0.056
1681411055044810254,-0.054
1681411055052510544,-0.058
1681411055060210834,-0.06
1681411055067911124,-0.058
1681411055075611414,-0.06
1681411055083311704,-0.049
1681411055091011994,-0.031
1681411055098712284,-0.041
1681411055106412574,-0.097
1681411055114112864,-0.166
1681411055121813154,-0.176
1681411055129513444,-0.162
1681411055137213734,-0.17200000000000001
1681411055144914024,-0.17
1681411055152614314,-0.153
1681411055160314604,-0.164
1681411055168014894,-0.17
1681411055175715184,-0.133
1681411055183415474,-0.12
1681411055191115764,-0.17400000000000002
1681411055198816054,-0.22
1681411055206516344,-0.234
1681411055214216634,-0.264
1681411055221916924,-0.311
1681411055229617214,-0.357
1681411055237317504,-0.405
1681411055245017794,-0.447
1681411055252718128,-0.428
1681411055260417721,-0.38
1681411055268117314,-0.37
1681411055275816907,-0.357
1681411055283516500,-0.336
1681411055291216093,-0.34
1681411055298915686,-0.34700000000000003
1681411055306615279,-0.34900000000000003
1681411055314314872,-0.386
1681411055322014465,-0.42
1681411055329714058,-0.39
1681411055337413651,-0.361
1681411055345113244,-0.378
1681411055352812837,-0.372
1681411055360512430,-0.332
1681411055368212023,-0.311
1681411055375911616,-0.313
1681411055383611209,-0.328
1681411055391310802,-0.324
1681411055399010395,-0.299
1681411055406709988,-0.332
1681411055414409581,-0.316
1681411055422109174,-0.187
1681411055429808767,-0.166
1681411055437508360,-0.243
1681411055445207953,-0.20700000000000002
1681411055452907546,-0.133
1681411055460607139,-0.126
1681411055468306732,-0.126
1681411055476006325,-0.13
1681411055483705918,-0.214
1681411055491405511,-0.311
1681411055499105104,-0.28600000000000003
1681411055506804697,-0.199
1681411055514504290,-0.185
1681411055522203883,-0.203
1681411055529903476,-0.201
1681411055537603069,-0.201
1681411055545302662,-0.193
1681411055553002255,-0.06
1681411055560701848,0.374
1681411055568401441,0.906
1681411055576101034,0.908
1681411055583800627,0.012
1681411055591500220,-0.871
1681411055599199813,-0.646
1681411055606899406,-0.089
1681411055614598999,-0.12
1681411055622298592,-0.22
1681411055629998185,-0.10300000000000001
1681411055637697778,-0.076
1681411055645397371,-0.11800000000000001
1681411055653096964,-0.074
1681411055660796557,-0.029,,698
1681411055668496150,-0.043000000000000003
1681411055676195743,-0.049
1681411055683895336,-0.027
1681411055691594929,0.0
1681411055699294522,0.014
1681411055706994115,0.018000000000000002
1681411055714693708,0.01
1681411055722393301,-0.014
1681411055730092894,-0.089
1681411055737792487,-0.145
1681411055745492080,-0.11
1681411055753191673,-0.064
1681411055760891266,-0.079
1681411055768590859,-0.089
1681411055776290452,-0.064
1681411055783990045,-0.043000000000000003
1681411055791689638,-0.043000000000000003
1681411055799389231,-0.058
1681411055807088824,-0.07
1681411055814788480,-0.07,83
1681411055822488631,-0.076
1681411055830188782,-0.114
1681411055837888933,-0.137
1681411055845589084,-0.149
1681411055853289235,-0.228
1681411055860989386,-0.318
1681411055868689537,-0.305
1681411055876389688,-0.27
1681411055884089839,-0.289
1681411055891789990,-0.297
1681411055899490141,-0.28400000000000003
1681411055907190292,-0.305
1681411055914890443,-0.338
1681411055922590594,-0.338
1681411055930290745,-0.334
1681411055937990896,-0.353
1681411055945691047,-0.363
1681411055953391198,-0.353
1681411055961091349,-0.328
1681411055968791500,-0.309
1681411055976491651,-0.318
1681411055984191802,-0.355
1681411055991891953,-0.365
1681411055999592104,-0.34500000000000003
1681411056007292255,-0.338
1681411056014992406,-0.322
1681411056022692557,-0.28400000000000003
1681411056030392708,-0.28
1681411056038092859,-0.307
1681411056045793010,-0.305
1681411056053493161,-0.274
1681411056061193312,-0.251
1681411056068893463,-0.241
1681411056076593614,-0.232
1681411056084293765,-0.23
1681411056091993916,-0.226
1681411056099694067,-0.216
1681411056107394218,-0.191
1681411056115094369,-0.168
1681411056122794520,-0.17
1681411056130494671,-0.182
1681411056138194822,-0.17
1681411056145894973,-0.14100000000000001
1681411056153595124,-0.133
1681411056161295275,-0.137
1681411056168995426,-0.116
1681411056176695577,-0.085
1681411056184395728,-0.074
1681411056192095879,-0.051000000000000004
1681411056199796030,-0.027
1681411056207496181,-0.047
1681411056215196332,-0.089
1681411056222896483,-0.124
1681411056230596634,-0.178
1681411056238296785,-0.212
1681411056245996936,-0.193
1681411056253697087,-0.166
1681411056261397238,-0.155
1681411056269097389,-0.176
1681411056276797540,-0.166
1681411056284497691,0.106
1681411056292197842,0.6940000000000001
1681411056299897993,1.129
1681411056307598144,0.758
1681411056315298295,-0.311
1681411056322998446,-0.837
1681411056330698597,-0.361
1681411056338398748,-0.027
1681411056346098899,-0.17200000000000001
1681411056353799050,-0.16,,690
1681411056361499201,-0.051000000000000004
1681411056369199352,-0.089
1681411056376899520,-0.085
1681411056384599392,-0.012
1681411056392299264,-0.004
1681411056399999136,-0.024
1681411056407699008,-0.012
1681411056415398880,0.0
1681411056423098752,-0.037
1681411056430798624,-0.081
1681411056438498496,-0.058
1681411056446198368,-0.018000000000000002
1681411056453898240,-0.033
1681411056461598112,-0.043000000000000003
1681411056469297984,-0.031
1681411056476997856,-0.049
1681411056484697728,-0.066
1681411056492397600,-0.047
1681411056500097472,-0.068
1681411056507797344,-0.14300000000000002
1681411056515497216,-0.128
1681411056523197088,-0.033
1681411056530896960,-0.031
1681411056538596832,-0.099
1681411056546296704,-0.11
1681411056553996576,-0.095
1681411056561696448,-0.089
1681411056569396320,-0.085
1681411056577096192,-0.097
1681411056584796064,-0.116
1681411056592495936,-0.133
1681411056600195808,-0.158
1681411056607895680,-0.199
1681411056615595552,-0.218
1681411056623295424,-0.22
1681411056630995296,-0.259
1681411056638695168,-0.303
1681411056646395040,-0.28200000000000003
1681411056654094912,-0.245
1681411056661794784,-0.241
1681411056669494656,-0.241
1681411056677194528,-0.222
1681411056684894400,-0.212
1681411056692594272,-0.214
1681411056700294144,-0.203
1681411056707994016,-0.185
1681411056715693888,-0.195
1681411056723393760,-0.251
1681411056731093632,-0.328
1681411056738793504,-0.365
1681411056746493376,-0.336
1681411056754193248,-0.305
1681411056761893120,-0.303
1681411056769592992,-0.289
1681411056777292864,-0.28
1681411056784992736,-0.28200000000000003
1681411056792692608,-0.264
1681411056800392480,-0.234
1681411056808092352,-0.218
1681411056815792224,-0.22
1681411056823492096,-0.224
1681411056831191968,-0.21
1681411056838891840,-0.185
1681411056846591712,-0.17400000000000002
1681411056854291584,-0.17200000000000001
1681411056861991456,-0.16
1681411056869691328,-0.153
1681411056877391200,-0.162
1681411056885091072,-0.153
1681411056892790944,-0.13
1681411056900490816,-0.116
1681411056908190688,-0.099
1681411056915890560,-0.079
1681411056923590432,-0.051000000000000004
1681411056931290304,-0.035
1681411056938990216,-0.062,83
1681411056946690088,-0.091
1681411056954389960,-0.081
1681411056962089832,-0.10300000000000001
1681411056969789704,-0.162
1681411056977489576,-0.151
1681411056985189448,-0.116
1681411056992889320,-0.17200000000000001
1681411057000589192,-0.27
1681411057008289064,-0.266
1681411057015988936,-0.058
1681411057023688808,0.444
1681411057031388680,0.985
1681411057039088552,0.879
1681411057046788424,-0.12
1681411057054488296,-0.9390000000000001
1681411057062188168,-0.652
1681411057069888040,-0.199,,714
1681411057077587912,-0.293
1681411057085287784,-0.316
1681411057092987656,-0.11800000000000001
1681411057100687528,-0.079
1681411057108387400,-0.153
1681411057116087272,-0.168
1681411057123787144,-0.151
1681411057131487016,-0.076
1681411057139186888,0.0
1681411057146886760,-0.029
1681411057154586632,-0.051000000000000004
1681411057162286504,-0.002
1681411057169986376,0.018000000000000002
1681411057177686248,0.002
1681411057185386120,0.016
1681411057193085992,0.039
1681411057200785864,0.041
1681411057208485736,0.029
1681411057216185608,-0.014
1681411057223885480,-0.054
1681411057231585352,-0.093
1681411057239285224,-0.199
1681411057246985096,-0.309
1681411057254684968,-0.303
1681411057262384840,-0.195
1681411057270084712,-0.101
1681411057277784584,-0.11
1681411057285484456,-0.14100000000000001
1681411057293184328,-0.151
1681411057300884200,-0.193
1681411057308584072,-0.23700000000000002
1681411057316283944,-0.261
1681411057323983816,-0.32
1681411057331683688,-0.368
1681411057339383560,-0.355
1681411057347083432,-0.334
1681411057354783304,-0.343
1681411057362483176,-0.34700000000000003
1681411057370183048,-0.326
1681411057377882920,-0.318
1681411057385582792,-0.316
1681411057393282664,-0.303
1681411057400982536,-0.289
1681411057408682408,-0.27
1681411057416382280,-0.272
1681411057424082152,-0.28
1681411057431782024,-0.241
1681411057439481896,-0.201
1681411057447181768,-0.216
1681411057454881640,-0.253
1681411057462581512,-0.289
1681411057470281384,-0.305
1681411057477981256,-0.328
1681411057485681128,-0.34
1681411057493381000,-0.305
1681411057501080916,-0.276,83
1681411057508780788,-0.274
1681411057516480660,-0.23700000000000002
1681411057524180532,-0.18
1681411057531880404,-0.185
1681411057539580276,-0.214
1681411057547280148,-0.191
1681411057554980020,-0.17200000000000001
1681411057562679892,-0.23700000000000002
1681411057570379764,-0.305
1681411057578079636,-0.28
1681411057585779508,-0.23900000000000002
1681411057593479380,-0.245
1681411057601179252,-0.253
1681411057608879124,-0.23900000000000002
1681411057616578996,-0.214
1681411057624278868,-0.214
1681411057631978740,-0.241
1681411057639678612,-0.232
1681411057647378484,-0.168
1681411057655078356,-0.14300000000000002
1681411057662778228,-0.158
1681411057670478100,-0.11800000000000001
1681411057678177972,-0.085
1681411057685877844,-0.124
1681411057693577716,-0.168
1681411057701277588,-0.189
1681411057708977460,-0.23
1681411057716677332,-0.313
1681411057724377204,-0.395
1681411057732077076,-0.386
1681411057739776948,-0.378
1681411057747476820,-0.40900000000000003
1681411057755176692,-0.32
1681411057762876564,-0.089
1681411057770576436,0.33
1681411057778276308,0.802
1681411057785976180,0.684
1681411057793676052,-0.293
1681411057801375924,-1.043,,737
1681411057809075796,-0.679
1681411057816775668,-0.197
1681411057824475540,-0.27
1681411057832175412,-0.316
1681411057839875284,-0.222
1681411057847575156,-0.216
1681411057855275028,-0.201
1681411057862974900,-0.128
1681411057870674772,-0.089
1681411057878374644,-0.091
1681411057886074516,-0.091
1681411057893774388,-0.091
1681411057901474260,-0.08700000000000001
1681411057909174132,-0.068
1681411057916874004,-0.066
1681411057924573876,-0.10300000000000001
1681411057932273748,-0.12
1681411057939973620,-0.149
1681411057947673492,-0.228
1681411057955373364,-0.228
1681411057963073236,-0.189
1681411057970773108,-0.187
1681411057978472980,-0.135
1681411057986172852,-0.081
1681411057993872724,-0.10300000000000001
1681411058001572596,-0.116
1681411058009272468,-0.122
1681411058016972340,-0.187
1681411058024672212,-0.234
1681411058032372084,-0.249
1681411058040071956,-0.28
1681411058047771828,-0.307
1681411058055471700,-0.305
1681411058063171612,-0.313
1681411058070871484,-0.34900000000000003
1681411058078571356,-0.37
1681411058086271228,-0.353
1681411058093971100,-0.328
1681411058101670972,-0.328
1681411058109370844,-0.336
1681411058117070716,-0.332
1681411058124770588,-0.324
1681411058132470460,-0.357
1681411058140170332,-0.41100000000000003
1681411058147870204,-0.39
1681411058155570076,-0.343
1681411058163269948,-0.359
1681411058170969820,-0.378
1681411058178669692,-0.34700000000000003
1681411058186369564,-0.293
1681411058194069436,-0.28
1681411058201769308,-0.318
1681411058209469180,-0.324
1681411058217169052,-0.297
1681411058224868924,-0.318
1681411058232568796,-0.386
1681411058240268668,-0.426
1681411058247968540,-0.395
1681411058255668412,-0.355
1681411058263368284,-0.357
1681411058271068156,-0.34
1681411058278768028,-0.301
1681411058286467900,-0.297
1681411058294167772,-0.326
1681411058301867644,-0.332
1681411058309567516,-0.299
1681411058317267388,-0.332
1681411058324967260,-0.405
1681411058332667132,-0.33
1681411058340367004,-0.195
1681411058348066876,-0.176
1681411058355766748,-0.218
1681411058363466620,-0.17200000000000001
1681411058371166492,-0.147
1681411058378866364,-0.266
1681411058386566236,-0.307
1681411058394266108,-0.151
1681411058401965980,-0.012
1681411058409665852,-0.006
1681411058417365724,-0.01
1681411058425065596,0.029
1681411058432765468,0.006
1681411058440465340,-0.07200000000000001
1681411058448165212,-0.106
1681411058455865084,-0.085
1681411058463564956,-0.074
1681411058471264828,-0.079
1681411058478964700,-0.06
1681411058486664572,-0.054
1681411058494364444,-0.085
1681411058502064316,-0.074
1681411058509764188,0.168
1681411058517464060,0.706
1681411058525163932,1.168
1681411058532863804,0.931
1681411058540563676,-0.074
1681411058548263548,-0.752
1681411058555963420,-0.38,,752
1681411058563663292,0.035
1681411058571363164,-0.081
1681411058579063036,-0.133
1681411058586762908,-0.031
1681411058594462780,-0.031
1681411058602162652,-0.031
1681411058609862524,0.014
1681411058617562396,0.012
1681411058625262308,-0.002,83
1681411058632962180,0.024
1681411058640662052,0.045
1681411058648361924,0.045
1681411058656061796,0.062
1681411058663761668,0.066
1681411058671461540,-0.006
1681411058679161412,-0.099
1681411058686861284,-0.12
1681411058694561156,-0.116
1681411058702261028,-0.122
1681411058709960900,-0.116
1681411058717660772,-0.101
1681411058725360644,-0.089
1681411058733060516,-0.083
1681411058740760388,-0.122
1681411058748460260,-0.216
1681411058756160132,-0.291
1681411058763860004,-0.318
1681411058771559876,-0.34900000000000003
1681411058779259748,-0.34900000000000003
1681411058786959620,-0.316
1681411058794659492,-0.322
1681411058802359364,-0.35100000000000003
1681411058810059236,-0.355
1681411058817759108,-0.357
1681411058825458980,-0.363
1681411058833158852,-0.35100000000000003
1681411058840858724,-0.322
1681411058848558596,-0.313
1681411058856258468,-0.326
1681411058863958340,-0.316
1681411058871658212,-0.274
1681411058879358084,-0.253
1681411058887057956,-0.251
1681411058894757828,-0.234
1681411058902457700,-0.22
1681411058910157572,-0.216
1681411058917857444,-0.20500000000000002
1681411058925557316,-0.185
1681411058933257188,-0.193
1681411058940957060,-0.241
1681411058948656932,-0.266
1681411058956356804,-0.23900000000000002
1681411058964056676,-0.20700000000000002
1681411058971756548,-0.212
1681411058979456420,-0.212
1681411058987156292,-0.193
1681411058994856164,-0.187
1681411059002556036,-0.195
1681411059010255908,-0.189
1681411059017955780,-0.16
1681411059025655652,-0.135
1681411059033355524,-0.139
1681411059041055396,-0.151
1681411059048755268,-0.137
1681411059056455140,-0.112
1681411059064155012,-0.108
1681411059071854884,-0.106
1681411059079554756,-0.089
1681411059087254628,-0.08700000000000001
1681411059094954500,-0.099
1681411059102654372,-0.08700000000000001
1681411059110354244,-0.054
1681411059118054116,-0.043000000000000003
1681411059125753988,-0.056
1681411059133453860,-0.062
1681411059141153732,-0.047
1681411059148853604,-0.037
1681411059156553476,-0.035
1681411059164253348,-0.022
1681411059171953220,-0.016
1681411059179653092,-0.054
1681411059187353004,-0.081
1681411059195052876,-0.041
1681411059202752748,0.018000000000000002
1681411059210452620,0.039
1681411059218152492,0.014
1681411059225852364,-0.031
1681411059233552236,-0.047
1681411059241252108,-0.056
1681411059248951980,-0.11
1681411059256651852,-0.14300000000000002
1681411059264351724,-0.11800000000000001
1681411059272051596,-0.155
1681411059279751468,-0.234
1681411059287451340,-0.23900000000000002,,729
1681411059295151212,-0.158
1681411059302851084,0.124
1681411059310550956,0.675
1681411059318250828,1.068
1681411059325950700,0.652
1681411059333650572,-0.41100000000000003
1681411059341350444,-0.864
1681411059349050316,-0.357
1681411059356750188,-0.058
1681411059364450060,-0.23
1681411059372149932,-0.224
1681411059379849804,-0.093
1681411059387549676,-0.095
1681411059395249548,-0.116
1681411059402949420,-0.081
1681411059410649292,-0.06
1681411059418349164,-0.081
1681411059426049036,-0.135
1681411059433748908,-0.17
1681411059441448780,-0.14300000000000002
1681411059449148652,-0.114
1681411059456848524,-0.128
1681411059464548396,-0.128
1681411059472248268,-0.093
1681411059479948140,-0.07
1681411059487648012,-0.064
1681411059495347884,-0.06
1681411059503047756,-0.07200000000000001
1681411059510747628,-0.101
1681411059518447500,-0.14100000000000001
1681411059526147372,-0.166
1681411059533847244,-0.155
1681411059541547116,-0.162
1681411059549246988,-0.20500000000000002
1681411059556946860,-0.212
1681411059564646732,-0.18
1681411059572346604,-0.18
1681411059580046476,-0.197
1681411059587746348,-0.193
1681411059595446220,-0.201
1681411059603146092,-0.234
1681411059610845964,-0.251
1681411059618545836,-0.243
1681411059626245708,-0.243
1681411059633945580,-0.274
1681411059641645452,-0.303
1681411059649345324,-0.28600000000000003
1681411059657045196,-0.272
1681411059664745068,-0.295
1681411059672444940,-0.316
1681411059680144812,-0.297
1681411059687844684,-0.278
1681411059695544556,-0.289
1681411059703244428,-0.264
1681411059710944300,-0.21
1681411059718644172,-0.216
1681411059726344044,-0.243
1681411059734043916,-0.224
1681411059741743788,-0.18
1681411059749443700,-0.178,83
1681411059757143572,-0.23
1681411059764843444,-0.222
1681411059772543316,-0.168
1681411059780243188,-0.20500000000000002
1681411059787943060,-0.293
1681411059795642932,-0.291
1681411059803342804,-0.23900000000000002
1681411059811042676,-0.234
1681411059818742548,-0.251
1681411059826442420,-0.245
1681411059834142292,-0.224
1681411059841842164,-0.212
1681411059849542036,-0.197
1681411059857241908,-0.17
1681411059864941780,-0.149
1681411059872641652,-0.162
1681411059880341524,-0.166
1681411059888041396,-0.137
1681411059895741268,-0.114
1681411059903441140,-0.116
1681411059911141012,-0.122
1681411059918840884,-0.153
1681411059926540756,-0.191
1681411059934240628,-0.189
1681411059941940500,-0.166
1681411059949640372,-0.147
1681411059957340244,-0.14100000000000001
1681411059965040116,-0.168
1681411059972739988,-0.176
1681411059980439860,-0.12
1681411059988139732,-0.07200000000000001
1681411059995839604,-0.066
1681411060003539476,-0.066
1681411060011239348,-0.08700000000000001
1681411060018939220,-0.112,,733
1681411060026639092,-0.106
1681411060034338964,-0.081
1681411060042038836,-0.062
1681411060049738708,-0.054
1681411060057438580,-0.07
1681411060065138452,-0.07200000000000001
1681411060072838324,-0.06
1681411060080538196,-0.039
1681411060088238068,0.178
1681411060095937940,0.7000000000000001
1681411060103637812,1.118
1681411060111337684,0.794
1681411060119037556,-0.228
1681411060126737428,-0.756
1681411060134437300,-0.28200000000000003
1681411060142137172,0.047
1681411060149837044,-0.139
1681411060157536916,-0.185
1681411060165236788,-0.145
1681411060172936660,-0.274
1681411060180636532,-0.309
1681411060188336404,-0.153
1681411060196036276,-0.093
1681411060203736148,-0.149
1681411060211436020,-0.13
1681411060219135892,-0.079
1681411060226835764,-0.093
1681411060234535636,-0.135
1681411060242235508,-0.162
1681411060249935380,-0.201
1681411060257635252,-0.291
1681411060265335124,-0.368
1681411060273034996,-0.355
1681411060280734868,-0.32
1681411060288434740,-0.326
1681411060296134612,-0.353
1681411060303834484,-0.357
1681411060311534398,-0.324
1681411060319234270,-0.324
1681411060326934142,-0.336
1681411060334634014,-0.313
1681411060342333886,-0.293
1681411060350033758,-0.295
1681411060357733630,-0.291
1681411060365433502,-0.266
1681411060373133374,-0.264
1681411060380833246,-0.328
1681411060388533118,-0.40700000000000003
1681411060396232990,-0.426
1681411060403932862,-0.359
1681411060411632734,-0.289
1681411060419332606,-0.336
1681411060427032478,-0.449
1681411060434732350,-0.455
1681411060442432222,-0.388
1681411060450132094,-0.359
1681411060457831966,-0.338
1681411060465531838,-0.297
1681411060473231710,-0.295
1681411060480931582,-0.291
1681411060488631454,-0.23
1681411060496331326,-0.187
1681411060504031198,-0.197
1681411060511731070,-0.191
1681411060519430942,-0.17
1681411060527130814,-0.17
1681411060534830686,-0.166
1681411060542530558,-0.14300000000000002
1681411060550230430,-0.116
1681411060557930302,-0.10300000000000001
1681411060565630174,-0.11800000000000001
1681411060573330046,-0.122
1681411060581029918,-0.093
1681411060588729790,-0.07200000000000001
1681411060596429662,-0.076
1681411060604129534,-0.074
1681411060611829406,-0.066
1681411060619529278,-0.068
1681411060627229150,-0.068
1681411060634929022,-0.051000000000000004
1681411060642628894,-0.029
1681411060650328766,-0.027
1681411060658028638,-0.06
1681411060665728510,-0.095
1681411060673428382,-0.076
1681411060681128254,-0.051000000000000004
1681411060688828126,-0.056
1681411060696527998,-0.051000000000000004
1681411060704227870,-0.041
1681411060711927742,-0.047
1681411060719627614,-0.043000000000000003
1681411060727327486,-0.022
1681411060735027358,-0.004
1681411060742727230,-0.012
1681411060750427102,-0.039
1681411060758126974,-0.045
1681411060765826846,-0.062,,746
1681411060773526718,-0.114
1681411060781226590,-0.11
1681411060788926462,-0.06
1681411060796626334,-0.083
1681411060804326206,-0.139
1681411060812026078,-0.126
1681411060819725950,-0.083
1681411060827425822,-0.07200000000000001
1681411060835125694,-0.085
1681411060842825566,-0.08700000000000001
1681411060850525438,-0.074
1681411060858225310,-0.07
1681411060865925182,-0.081
1681411060873625096,0.054,82
1681411060881325247,0.499
1681411060889025398,0.995
1681411060896725549,0.9580000000000001
1681411060904425700,0.066
1681411060912125851,-0.864
1681411060919826002,-0.725
1681411060927526153,-0.197
1681411060935226304,-0.234
1681411060942926455,-0.343
1681411060950626606,-0.245
1681411060958326757,-0.293
1681411060966026908,-0.386
1681411060973727059,-0.34500000000000003
1681411060981427210,-0.34500000000000003
1681411060989127361,-0.405
1681411060996827512,-0.37
1681411061004527663,-0.311
1681411061012227814,-0.313
1681411061019927965,-0.32
1681411061027628116,-0.295
1681411061035328267,-0.272
1681411061043028418,-0.257
1681411061050728569,-0.232
1681411061058428720,-0.193
1681411061066128871,-0.17
1681411061073829022,-0.176
1681411061081529173,-0.17400000000000002
1681411061089229324,-0.14100000000000001
1681411061096929475,-0.11800000000000001
1681411061104629626,-0.124
1681411061112329777,-0.13
1681411061120029928,-0.126
1681411061127730079,-0.13
1681411061135430230,-0.137
1681411061143130381,-0.135
1681411061150830532,-0.149
1681411061158530683,-0.195
1681411061166230834,-0.232
1681411061173930985,-0.234
1681411061181631136,-0.22
1681411061189331287,-0.216
1681411061197031438,-0.222
1681411061204731589,-0.214
1681411061212431740,-0.201
1681411061220131891,-0.201
1681411061227832042,-0.193
1681411061235532193,-0.168
1681411061243232344,-0.135
1681411061250932495,-0.128
1681411061258632646,-0.14100000000000001
1681411061266332797,-0.137
1681411061274032948,-0.153
1681411061281733099,-0.224
1681411061289433250,-0.241
1681411061297133401,-0.193
1681411061304833552,-0.18
1681411061312533703,-0.191
1681411061320233854,-0.17
1681411061327934005,-0.137
1681411061335634156,-0.116
1681411061343334307,-0.116
1681411061351034458,-0.124
1681411061358734609,-0.112
1681411061366434760,-0.085
1681411061374134911,-0.083
1681411061381835062,-0.085
1681411061389535213,-0.076
1681411061397235364,-0.116
1681411061404935515,-0.176
1681411061412635666,-0.168
1681411061420335817,-0.12
1681411061428035968,-0.108
1681411061435736138,-0.116,82
1681411061443436149,-0.116
1681411061451136160,-0.099
1681411061458836171,-0.079
1681411061466536182,-0.076
1681411061474236193,-0.066
1681411061481936204,-0.045
1681411061489636215,-0.074
1681411061497336226,-0.151
1681411061505036237,-0.164
1681411061512736248,-0.114,,746
1681411061520436259,-0.099
1681411061528136270,-0.122
1681411061535836281,-0.126
1681411061543536292,-0.108
1681411061551236303,-0.089
1681411061558936314,-0.07
1681411061566636325,-0.033
1681411061574336336,0.006
1681411061582036347,-0.002
1681411061589736358,-0.047
1681411061597436369,-0.064
1681411061605136380,-0.037
1681411061612836391,-0.022
1681411061620536402,-0.037
1681411061628236413,-0.068
1681411061635936424,-0.10300000000000001
1681411061643636435,-0.137
1681411061651336446,-0.17400000000000002
1681411061659036457,-0.14100000000000001
1681411061666736468,0.126
1681411061674436479,0.638
1681411061682136490,1.031
1681411061689836501,0.717
1681411061697536512,-0.303
1681411061705236523,-0.879
1681411061712936534,-0.47600000000000003
1681411061720636545,-0.164
1681411061728336556,-0.33
1681411061736036567,-0.37
1681411061743736578,-0.261
1681411061751436589,-0.261
1681411061759136600,-0.274
1681411061766836611,-0.228
1681411061774536622,-0.18
1681411061782236633,-0.185
1681411061789936644,-0.232
1681411061797636655,-0.243
1681411061805336666,-0.23
1681411061813036677,-0.251
1681411061820736688,-0.261
1681411061828436699,-0.257
1681411061836136710,-0.253
1681411061843836721,-0.218
1681411061851536732,-0.17400000000000002
1681411061859236743,-0.166
1681411061866936754,-0.185
1681411061874636765,-0.166
1681411061882336776,-0.11800000000000001
1681411061890036787,-0.14300000000000002
1681411061897736798,-0.197
1681411061905436809,-0.197
1681411061913136820,-0.168
1681411061920836831,-0.10300000000000001
1681411061928536842,-0.022
1681411061936236853,-0.035
1681411061943936864,-0.114
1681411061951636875,-0.145
1681411061959336886,-0.089
1681411061967036897,-0.081
1681411061974736908,-0.155
1681411061982436919,-0.158
1681411061990136930,-0.153
1681411061997837006,-0.201
1681411062005536878,-0.145
1681411062013236750,-0.093
1681411062020936622,-0.14100000000000001
1681411062028636494,-0.17200000000000001
1681411062036336366,-0.13
1681411062044036238,-0.058
1681411062051736110,-0.033
1681411062059435982,-0.058
1681411062067135854,-0.106
1681411062074835726,-0.133
1681411062082535598,-0.108
1681411062090235470,-0.097
1681411062097935342,-0.116
1681411062105635214,-0.097
1681411062113335086,-0.056
1681411062121034958,-0.049
1681411062128734830,-0.074
1681411062136434702,-0.114
1681411062144134574,-0.147
1681411062151834446,-0.139
1681411062159534318,-0.11800000000000001
1681411062167234190,-0.114
1681411062174934062,-0.114
1681411062182633934,-0.112
1681411062190333806,-0.097
1681411062198033678,-0.079
1681411062205733550,-0.06
1681411062213433422,-0.054
1681411062221133294,-0.062
1681411062228833166,-0.058
1681411062236533038,-0.045
1681411062244232910,-0.049
1681411062251932782,-0.047
1681411062259632654,-0.022
1681411062267332526,-0.004
1681411062275032398,-0.027
1681411062282732270,-0.093
1681411062290432142,-0.14300000000000002
1681411062298132014,-0.133,,791
1681411062305831886,-0.108
1681411062313531758,-0.124
1681411062321231630,-0.195
1681411062328931502,-0.249
1681411062336631374,-0.203
1681411062344331246,-0.151
1681411062352031118,-0.101
1681411062359730990,-0.014
1681411062367430862,-0.02
1681411062375130734,-0.101
1681411062382830606,-0.122
1681411062390530478,-0.145
1681411062398230350,-0.17
1681411062405930222,-0.162
1681411062413630094,-0.17400000000000002
1681411062421329966,-0.106
1681411062429029838,0.28
1681411062436729710,0.842
1681411062444429582,0.991
1681411062452129454,0.228
1681411062459829326,-0.8190000000000001
1681411062467529198,-0.86
1681411062475229070,-0.309
1681411062482928942,-0.259
1681411062490628814,-0.382
1681411062498328686,-0.289
1681411062506028558,-0.28
1681411062513728430,-0.37
1681411062521428302,-0.301
1681411062529128174,-0.18
1681411062536828046,-0.185
1681411062544527918,-0.218
1681411062552227790,-0.199
1681411062559927702,-0.176,81
1681411062567627156,-0.166
1681411062575326610,-0.155
1681411062583026064,-0.137
1681411062590725518,-0.116
1681411062598424972,-0.128
1681411062606124426,-0.185
1681411062613823880,-0.20700000000000002
1681411062621523334,-0.17
1681411062629222788,-0.178
1681411062636922242,-0.23700000000000002
1681411062644621696,-0.23900000000000002
1681411062652321150,-0.201
1681411062660020604,-0.189
1681411062667720058,-0.195
1681411062675419512,-0.187
1681411062683118966,-0.168
1681411062690818420,-0.178
1681411062698517874,-0.195
1681411062706217328,-0.178
1681411062713916782,-0.162
1681411062721616236,-0.176
1681411062729315690,-0.195
1681411062737015144,-0.201
1681411062744714598,-0.203
1681411062752414052,-0.212
1681411062760113506,-0.203
1681411062767812960,-0.17
1681411062775512414,-0.162
1681411062783211868,-0.224
1681411062790911322,-0.28200000000000003
1681411062798610776,-0.249
1681411062806310230,-0.197
1681411062814009684,-0.191
1681411062821709138,-0.182
1681411062829408592,-0.166
1681411062837108046,-0.153
1681411062844807500,-0.14300000000000002
1681411062852506954,-0.124
1681411062860206408,-0.099
1681411062867905862,-0.093
1681411062875605316,-0.13
1681411062883304770,-0.162
1681411062891004224,-0.13
1681411062898703678,-0.099
1681411062906403132,-0.112
1681411062914102586,-0.114
1681411062921802040,-0.097
1681411062929501494,-0.099
1681411062937200948,-0.106
1681411062944900402,-0.085
1681411062952599856,-0.056
1681411062960299310,-0.064
1681411062967998764,-0.10300000000000001
1681411062975698218,-0.10300000000000001
1681411062983397672,-0.062
1681411062991097126,-0.054
1681411062998796580,-0.07
1681411063006496034,-0.066
1681411063014195488,-0.058
1681411063021894942,-0.066
1681411063029594396,-0.07
1681411063037293850,-0.037
1681411063044993304,0.012
1681411063052692758,0.014
1681411063060392212,-0.004
1681411063068091666,0.004
1681411063075791120,-0.004
1681411063083490574,-0.024
1681411063091190028,-0.018000000000000002,,786
1681411063098889482,-0.012
1681411063106588936,-0.02
1681411063114288390,-0.058
1681411063121987880,-0.166
1681411063129687752,-0.245
1681411063137387624,-0.212
1681411063145087496,-0.099
1681411063152787368,0.266
1681411063160487240,0.837
1681411063168187112,0.962
1681411063175886984,0.108
1681411063183586856,-0.9480000000000001
1681411063191286728,-0.912
1681411063198986600,-0.332
1681411063206686472,-0.307
1681411063214386344,-0.43
1681411063222086216,-0.303
1681411063229786088,-0.249
1681411063237485960,-0.307
1681411063245185832,-0.313
1681411063252885704,-0.303
1681411063260585576,-0.32
1681411063268285448,-0.343
1681411063275985320,-0.334
1681411063283685192,-0.307
1681411063291385064,-0.28200000000000003
1681411063299084936,-0.23700000000000002
1681411063306784808,-0.203
1681411063314484680,-0.203
1681411063322184552,-0.199
1681411063329884424,-0.197
1681411063337584296,-0.226
1681411063345284168,-0.216
1681411063352984040,-0.145
1681411063360683912,-0.14100000000000001
1681411063368383784,-0.21
1681411063376083656,-0.245
1681411063383783528,-0.27
1681411063391483400,-0.274
1681411063399183272,-0.224
1681411063406883144,-0.201
1681411063414583016,-0.21
1681411063422282888,-0.191
1681411063429982760,-0.18
1681411063437682632,-0.197
1681411063445382504,-0.21
1681411063453082376,-0.20500000000000002
1681411063460782248,-0.195
1681411063468482120,-0.195
1681411063476181992,-0.216
1681411063483881864,-0.216
1681411063491581736,-0.18
1681411063499281608,-0.158
1681411063506981480,-0.158
1681411063514681352,-0.145
1681411063522381224,-0.124
1681411063530081096,-0.11800000000000001
1681411063537780968,-0.11
1681411063545480840,-0.08700000000000001
1681411063553180712,-0.056
1681411063560880584,-0.049
1681411063568580456,-0.064
1681411063576280328,-0.062
1681411063583980200,-0.043000000000000003
1681411063591680072,-0.033
1681411063599379944,-0.027
1681411063607079816,-0.031
1681411063614779688,-0.076
1681411063622479560,-0.11800000000000001
1681411063630179432,-0.099
1681411063637879304,-0.07200000000000001
1681411063645579176,-0.066
1681411063653279048,-0.07
1681411063660978920,-0.081
1681411063668678792,-0.074
1681411063676378664,-0.049
1681411063684078578,-0.041,81
1681411063691778450,-0.039
1681411063699478322,-0.027
1681411063707178194,-0.043000000000000003
1681411063714878066,-0.11
1681411063722577938,-0.151
1681411063730277810,-0.126
1681411063737977682,-0.097
1681411063745677554,-0.093
1681411063753377426,-0.079
1681411063761077298,-0.039
1681411063768777170,-0.014
1681411063776477042,-0.039
1681411063784176914,-0.079
1681411063791876786,-0.12
1681411063799576658,-0.191
1681411063807276530,-0.218
1681411063814976402,-0.176
1681411063822676274,-0.14100000000000001
1681411063830376146,-0.135
1681411063838076018,-0.147
1681411063845775890,-0.16
1681411063853475762,-0.033
1681411063861175634,0.401
1681411063868875506,0.929
1681411063876575378,0.973,,788
1681411063884275250,0.133
1681411063891975122,-0.8250000000000001
1681411063899674994,-0.727
1681411063907374866,-0.155
1681411063915074738,-0.14100000000000001
1681411063922774610,-0.266
1681411063930474482,-0.16
1681411063938174354,-0.12
1681411063945874226,-0.164
1681411063953574098,-0.16
1681411063961273970,-0.158
1681411063968973842,-0.153
1681411063976673714,-0.13
1681411063984373586,-0.137
1681411063992073458,-0.145
1681411063999773330,-0.108
1681411064007473202,-0.079
1681411064015173074,-0.083
1681411064022872946,-0.08700000000000001
1681411064030572818,-0.095
1681411064038272690,-0.124
1681411064045972562,-0.14300000000000002
1681411064053672434,-0.153
1681411064061372306,-0.162
1681411064069072178,-0.164
1681411064076772050,-0.178
1681411064084471922,-0.187
1681411064092171794,-0.158
1681411064099871666,-0.155
1681411064107571538,-0.21
1681411064115271410,-0.241
1681411064122971282,-0.228
1681411064130671154,-0.226
1681411064138371026,-0.241
1681411064146070898,-0.23700000000000002
1681411064153770770,-0.224
1681411064161470642,-0.245
1681411064169170514,-0.299
1681411064176870386,-0.328
1681411064184570258,-0.34500000000000003
1681411064192270130,-0.38
1681411064199970002,-0.363
1681411064207669874,-0.307
1681411064215369746,-0.295
1681411064223069618,-0.305
1681411064230769490,-0.293
1681411064238469362,-0.259
1681411064246169276,-0.228
1681411064253869148,-0.224
1681411064261569020,-0.23
1681411064269268892,-0.20700000000000002
1681411064276968764,-0.17400000000000002
1681411064284668636,-0.17200000000000001
1681411064292368508,-0.22
1681411064300068380,-0.28600000000000003
1681411064307768252,-0.328
1681411064315468124,-0.361
1681411064323167996,-0.382
1681411064330867868,-0.34500000000000003
1681411064338567740,-0.297
1681411064346267612,-0.301
1681411064353967484,-0.338
1681411064361667356,-0.34700000000000003
1681411064369367228,-0.318
1681411064377067100,-0.305
1681411064384766972,-0.289
1681411064392466844,-0.257
1681411064400166716,-0.257
1681411064407866588,-0.268
1681411064415566460,-0.243
1681411064423266332,-0.216
1681411064430966204,-0.21
1681411064438666076,-0.197
1681411064446365948,-0.162
1681411064454065820,-0.124
1681411064461765692,-0.101
1681411064469465564,-0.108
1681411064477165436,-0.128
1681411064484865308,-0.13
1681411064492565180,-0.126
1681411064500265052,-0.133
1681411064507964924,-0.122
1681411064515664796,-0.093
1681411064523364668,-0.083
1681411064531064540,-0.091
1681411064538764412,-0.114
1681411064546464284,-0.079
1681411064554164156,0.228
1681411064561864028,0.8230000000000001
1681411064569563900,1.212
1681411064577263772,0.719
1681411064584963644,-0.41500000000000004
1681411064592663516,-0.844
1681411064600363388,-0.33
1681411064608063260,-0.085
1681411064615763132,-0.247
1681411064623463004,-0.212
1681411064631162876,-0.114
1681411064638862748,-0.147
1681411064646562620,-0.147
1681411064654262492,-0.093
1681411064661962364,-0.068
1681411064669662236,-0.066,,791
1681411064677362108,-0.07
1681411064685061980,-0.06
1681411064692761852,-0.027
1681411064700461724,0.0
1681411064708161596,0.002
1681411064715861468,0.012
1681411064723561340,0.033
1681411064731261212,0.039
1681411064738961084,0.022
1681411064746660956,0.004
1681411064754360828,0.008
1681411064762060700,0.012
1681411064769760572,-0.014
1681411064777460444,-0.031
1681411064785160316,-0.012
1681411064792860188,-0.031
1681411064800560060,-0.112
1681411064808259972,-0.168,80
1681411064815959844,-0.17400000000000002
1681411064823659716,-0.20700000000000002
1681411064831359588,-0.247
1681411064839059460,-0.276
1681411064846759332,-0.34700000000000003
1681411064854459204,-0.417
1681411064862159076,-0.434
1681411064869858948,-0.422
1681411064877558820,-0.426
1681411064885258692,-0.46900000000000003
1681411064892958564,-0.494
1681411064900658436,-0.459
1681411064908358308,-0.44
1681411064916058180,-0.449
1681411064923758052,-0.42
1681411064931457924,-0.37
1681411064939157796,-0.34900000000000003
1681411064946857668,-0.35100000000000003
1681411064954557540,-0.34500000000000003
1681411064962257412,-0.322
1681411064969957284,-0.303
1681411064977657156,-0.299
1681411064985357028,-0.28
1681411064993056900,-0.251
1681411065000756772,-0.257
1681411065008456644,-0.272
1681411065016156516,-0.247
1681411065023856388,-0.212
1681411065031556260,-0.20500000000000002
1681411065039256132,-0.212
1681411065046956004,-0.20700000000000002
1681411065054655876,-0.191
1681411065062355748,-0.182
1681411065070055620,-0.185
1681411065077755492,-0.17
1681411065085455364,-0.153
1681411065093155236,-0.17200000000000001
1681411065100855108,-0.178
1681411065108554980,-0.133
1681411065116254852,-0.11
1681411065123954724,-0.155
1681411065131654596,-0.182
1681411065139354468,-0.16
1681411065147054340,-0.14300000000000002
1681411065154754212,-0.14100000000000001
1681411065162454084,-0.124
1681411065170153956,-0.095
1681411065177853828,-0.08700000000000001
1681411065185553700,-0.126
1681411065193253572,-0.124
1681411065200953444,0.17
1681411065208653316,0.785
1681411065216353188,1.222
1681411065224053060,0.783
1681411065231752932,-0.35100000000000003
1681411065239452804,-0.842
1681411065247152676,-0.318
1681411065254852548,0.014
1681411065262552420,-0.122
1681411065270252292,-0.114
1681411065277952164,-0.033
1681411065285652036,-0.068
1681411065293351908,-0.07200000000000001
1681411065301051780,-0.08700000000000001
1681411065308751652,-0.162
1681411065316451524,-0.162
1681411065324151396,-0.11
1681411065331851268,-0.114
1681411065339551140,-0.133
1681411065347251012,-0.11800000000000001
1681411065354950884,-0.089
1681411065362650756,-0.081
1681411065370350668,-0.08700000000000001,80
1681411065378050540,-0.062
1681411065385750412,-0.02
1681411065393450284,-0.008
1681411065401150156,-0.004
1681411065408850028,0.016
1681411065416549900,0.006
1681411065424249772,-0.058,,759
1681411065431949644,-0.108
1681411065439649516,-0.085
1681411065447349388,-0.058
1681411065455049260,-0.08700000000000001
1681411065462749132,-0.116
1681411065470449004,-0.091
1681411065478148876,-0.068
1681411065485848748,-0.085
1681411065493548620,-0.095
1681411065501248492,-0.091
1681411065508948364,-0.114
1681411065516648236,-0.14300000000000002
1681411065524348108,-0.14300000000000002
1681411065532047980,-0.147
1681411065539747852,-0.17
1681411065547447724,-0.176
1681411065555147596,-0.17
1681411065562847468,-0.155
1681411065570547340,-0.139
1681411065578247212,-0.145
1681411065585947084,-0.176
1681411065593646956,-0.193
1681411065601346828,-0.197
1681411065609046700,-0.224
1681411065616746572,-0.245
1681411065624446444,-0.23700000000000002
1681411065632146316,-0.257
1681411065639846188,-0.297
1681411065647546060,-0.295
1681411065655245932,-0.274
1681411065662945804,-0.276
1681411065670645676,-0.276
1681411065678345548,-0.253
1681411065686045420,-0.243
1681411065693745292,-0.259
1681411065701445164,-0.27
1681411065709145036,-0.249
1681411065716844908,-0.224
1681411065724544780,-0.20700000000000002
1681411065732244652,-0.189
1681411065739944524,-0.164
1681411065747644396,-0.149
1681411065755344268,-0.164
1681411065763044140,-0.193
1681411065770744012,-0.18
1681411065778443884,-0.155
1681411065786143756,-0.17200000000000001
1681411065793843628,-0.185
1681411065801543500,-0.203
1681411065809243372,-0.27
1681411065816943244,-0.307
1681411065824643116,-0.322
1681411065832342988,-0.309
1681411065840042860,0.014
1681411065847742732,0.661
1681411065855442604,0.968
1681411065863142476,0.301
1681411065870842348,-0.81
1681411065878542220,-0.995
1681411065886242092,-0.38
1681411065893941964,-0.185
1681411065901641836,-0.33
1681411065909341708,-0.261
1681411065917041580,-0.17400000000000002
1681411065924741452,-0.214
1681411065932441364,-0.20700000000000002
1681411065940140818,-0.16
1681411065947840272,-0.137
1681411065955539726,-0.11800000000000001
1681411065963239180,-0.11800000000000001
1681411065970938634,-0.137
1681411065978638088,-0.116
1681411065986337542,-0.095
1681411065994036996,-0.147
1681411066001736450,-0.195
1681411066009435904,-0.158
1681411066017135358,-0.128
1681411066024834812,-0.147
1681411066032534266,-0.135
1681411066040233720,-0.091
1681411066047933174,-0.074
1681411066055632628,-0.08700000000000001
1681411066063332082,-0.097
1681411066071031536,-0.106
1681411066078730990,-0.14100000000000001
1681411066086430444,-0.182
1681411066094129898,-0.166
1681411066101829352,-0.122
1681411066109528806,-0.122
1681411066117228260,-0.14100000000000001
1681411066124927714,-0.137
1681411066132627168,-0.126
1681411066140326622,-0.13
1681411066148026076,-0.147,,724
1681411066155725530,-0.168
1681411066163424984,-0.162
1681411066171124438,-0.14100000000000001
1681411066178823892,-0.137
1681411066186523346,-0.11800000000000001
1681411066194222800,-0.095
1681411066201922254,-0.108
1681411066209621708,-0.11
1681411066217321162,-0.068
1681411066225020616,-0.039
1681411066232720070,-0.045
1681411066240419524,-0.041
1681411066248118978,-0.014
1681411066255818432,0.01
1681411066263517886,0.016
1681411066271217340,0.01
1681411066278916794,0.01
1681411066286616248,0.0
1681411066294315702,-0.049
1681411066302015156,-0.114
1681411066309714610,-0.158
1681411066317414064,-0.222
1681411066325113518,-0.278
1681411066332812972,-0.274
1681411066340512426,-0.247
1681411066348211880,-0.234
1681411066355911334,-0.243
1681411066363610788,-0.261
1681411066371310242,-0.274
1681411066379009696,-0.28200000000000003
1681411066386709150,-0.307
1681411066394408604,-0.32
1681411066402108058,-0.28
1681411066409807512,-0.251
1681411066417506966,-0.293
1681411066425206420,-0.311
1681411066432905874,-0.247
1681411066440605328,-0.222
1681411066448304782,-0.266
1681411066456004236,-0.247
1681411066463703690,-0.17
1681411066471403144,-0.145
1681411066479102598,-0.20700000000000002
1681411066486802052,-0.232
1681411066494501542,-0.051000000000000004,81
1681411066502200996,0.457
1681411066509900450,1.006
1681411066517599904,0.877
1681411066525299358,-0.164
1681411066532998812,-1.02
1681411066540698266,-0.715
1681411066548397720,-0.216
1681411066556097174,-0.34
1681411066563796628,-0.397
1681411066571496082,-0.185
1681411066579195536,-0.153
1681411066586894990,-0.222
1681411066594594444,-0.234
1681411066602293898,-0.224
1681411066609993352,-0.139
1681411066617692806,-0.106
1681411066625392260,-0.17200000000000001
1681411066633091714,-0.178
1681411066640791168,-0.151
1681411066648490622,-0.147
1681411066656190076,-0.124
1681411066663889530,-0.054
1681411066671588984,-0.047
1681411066679288438,-0.145
1681411066686987892,-0.137
1681411066694687346,-0.054
1681411066702386800,-0.051000000000000004
1681411066710086254,-0.074
1681411066717785708,-0.066
1681411066725485162,-0.049
1681411066733184616,-0.037
1681411066740884070,-0.033
1681411066748583524,-0.039
1681411066756282978,-0.037
1681411066763982432,-0.022
1681411066771681886,-0.018000000000000002
1681411066779381340,-0.029
1681411066787080794,-0.022
1681411066794780248,-0.006
1681411066802479702,-0.01
1681411066810179156,-0.064
1681411066817878610,-0.185
1681411066825578064,-0.291
1681411066833277518,-0.299
1681411066840976972,-0.274
1681411066848676426,-0.266
1681411066856375880,-0.243,,708
1681411066864075334,-0.214
1681411066871774788,-0.193
1681411066879474242,-0.153
1681411066887173696,-0.124
1681411066894873150,-0.133
1681411066902572604,-0.13
1681411066910272058,-0.091
1681411066917971512,-0.066
1681411066925670966,-0.066
1681411066933370420,-0.054
1681411066941069874,-0.029
1681411066948769328,-0.014
1681411066956468782,-0.035
1681411066964168236,-0.054
1681411066971867690,-0.033
1681411066979567144,-0.016
1681411066987266598,-0.045
1681411066994966052,-0.049
1681411067002665506,-0.016
1681411067010364960,-0.018000000000000002
1681411067018064414,-0.054
1681411067025763868,-0.058
1681411067033463322,-0.06
1681411067041162776,-0.093
1681411067048862230,-0.08700000000000001
1681411067056561722,-0.049
1681411067064261524,-0.054
1681411067071961326,-0.049
1681411067079661128,-0.012
1681411067087360930,-0.041
1681411067095060732,-0.133
1681411067102760534,-0.195
1681411067110460336,-0.251
1681411067118160138,-0.313
1681411067125859940,-0.324
1681411067133559742,-0.318
1681411067141259544,-0.305
1681411067148959346,-0.253
1681411067156659148,-0.23900000000000002
1681411067164358950,-0.176
1681411067172058752,0.23900000000000002
1681411067179758554,0.892
1681411067187458356,1.047
1681411067195158158,0.21
1681411067202857960,-0.792
1681411067210557762,-0.733
1681411067218257564,-0.185
1681411067225957366,-0.17
1681411067233657168,-0.28400000000000003
1681411067241356970,-0.155
1681411067249056772,-0.101
1681411067256756574,-0.151
1681411067264456376,-0.135
1681411067272156178,-0.101
1681411067279855980,-0.133
1681411067287555782,-0.137
1681411067295255584,-0.051000000000000004
1681411067302955386,-0.002
1681411067310655188,-0.068
1681411067318354990,-0.13
1681411067326054792,-0.151
1681411067333754594,-0.189
1681411067341454396,-0.185
1681411067349154198,-0.149
1681411067356854000,-0.162
1681411067364553802,-0.162
1681411067372253604,-0.097
1681411067379953406,-0.049
1681411067387653208,-0.045
1681411067395353010,-0.041
1681411067403052812,-0.054
1681411067410752614,-0.074
1681411067418452416,-0.054
1681411067426152218,-0.02
1681411067433852020,-0.016
1681411067441551822,-0.02
1681411067449251624,-0.014
1681411067456951426,-0.016
1681411067464651228,-0.031
1681411067472351030,-0.033
1681411067480050832,-0.02
1681411067487750634,-0.016
1681411067495450436,-0.041
1681411067503150238,-0.051000000000000004
1681411067510850040,-0.02
1681411067518549842,0.004
1681411067526249644,0.004
1681411067533949446,0.01
1681411067541649248,0.022
1681411067549349050,0.018000000000000002
1681411067557048852,-0.004,,696
1681411067564748654,-0.008
1681411067572448456,0.024
1681411067580148258,0.035
1681411067587848060,0.01
1681411067595547862,0.01
1681411067603247664,0.045
1681411067610947466,0.056
1681411067618647334,0.045,82
1681411067626346858,0.054
1681411067634046382,0.06
1681411067641745906,0.047
1681411067649445430,0.047
1681411067657144954,0.066
1681411067664844478,0.085
1681411067672544002,0.079
1681411067680243526,0.056
1681411067687943050,0.051000000000000004
1681411067695642574,0.068
1681411067703342098,0.037
1681411067711041622,-0.024
1681411067718741146,-0.049
1681411067726440670,-0.07
1681411067734140194,-0.108
1681411067741839718,-0.101
1681411067749539242,-0.049
1681411067757238766,-0.012
1681411067764938290,-0.008
1681411067772637814,-0.02
1681411067780337338,-0.039
1681411067788036862,-0.049
1681411067795736386,-0.054
1681411067803435910,-0.093
1681411067811135434,-0.14300000000000002
1681411067818834958,-0.164
1681411067826534482,-0.212
1681411067834234006,-0.28600000000000003
1681411067841933530,-0.318
1681411067849633054,-0.307
1681411067857332578,-0.168
1681411067865032102,0.307
1681411067872731626,0.889
1681411067880431150,0.85
1681411067888130674,-0.097
1681411067895830198,-0.933
1681411067903529722,-0.6880000000000001
1681411067911229246,-0.203
1681411067918928770,-0.272
1681411067926628294,-0.343
1681411067934327818,-0.203
1681411067942027342,-0.18
1681411067949726866,-0.224
1681411067957426390,-0.193
1681411067965125914,-0.162
1681411067972825438,-0.164
1681411067980524962,-0.153
1681411067988224486,-0.11800000000000001
1681411067995924010,-0.097
1681411068003623534,-0.108
1681411068011323058,-0.108
1681411068019022582,-0.07200000000000001
1681411068026722106,-0.039
1681411068034421630,-0.033
1681411068042121154,-0.047
1681411068049820678,-0.083
1681411068057520202,-0.099
1681411068065219726,-0.085
1681411068072919250,-0.07
1681411068080618774,-0.056
1681411068088318298,-0.054
1681411068096017822,-0.079
1681411068103717346,-0.091
1681411068111416870,-0.068
1681411068119116394,-0.047
1681411068126815918,-0.039
1681411068134515442,-0.043000000000000003
1681411068142214966,-0.083
1681411068149914490,-0.112
1681411068157614014,-0.091
1681411068165313538,-0.054
1681411068173013062,-0.022
1681411068180712598,-0.016
1681411068188412470,-0.054
1681411068196112342,-0.064
1681411068203812214,-0.031,,647
1681411068211512086,-0.012
1681411068219211958,-0.027
1681411068226911830,-0.041
1681411068234611702,-0.031
1681411068242311574,-0.022
1681411068250011446,-0.056
1681411068257711318,-0.116
1681411068265411190,-0.135
1681411068273111062,-0.14100000000000001
1681411068280810934,-0.201
1681411068288510806,-0.23700000000000002
1681411068296210678,-0.228
1681411068303910550,-0.234
1681411068311610422,-0.228
1681411068319310294,-0.20700000000000002
1681411068327010166,-0.197
1681411068334710038,-0.218
1681411068342409910,-0.27
1681411068350109782,-0.272
1681411068357809654,-0.17400000000000002
1681411068365509526,-0.106
1681411068373209398,-0.12
1681411068380909270,-0.10300000000000001
1681411068388609142,-0.058
1681411068396309014,-0.062
1681411068404008886,-0.081
1681411068411708758,-0.14300000000000002
1681411068419408630,-0.259
1681411068427108502,-0.297
1681411068434808374,-0.268
1681411068442508246,-0.259
1681411068450208118,-0.251
1681411068457907990,-0.243
1681411068465607862,-0.251
1681411068473307734,-0.232
1681411068481007606,-0.189
1681411068488707478,-0.164
1681411068496407350,-0.151
1681411068504107222,-0.10300000000000001
1681411068511807094,-0.06
1681411068519506966,-0.137
1681411068527206838,-0.23
1681411068534906710,-0.222
1681411068542606582,-0.23900000000000002
1681411068550306454,-0.301
1681411068558006326,-0.293
1681411068565706198,-0.264
1681411068573406070,-0.295
1681411068581105942,-0.309
1681411068588805814,-0.11
1681411068596505686,0.397
1681411068604205558,0.873
1681411068611905430,0.6880000000000001
1681411068619605302,-0.322
1681411068627305174,-1.114
1681411068635005046,-0.806
1681411068642704918,-0.276
1681411068650404790,-0.266
1681411068658104662,-0.359
1681411068665804534,-0.382
1681411068673504406,-0.376
1681411068681204278,-0.299
1681411068688904150,-0.255
1681411068696604022,-0.253
1681411068704303894,-0.193
1681411068712003766,-0.137
1681411068719703638,-0.101
1681411068727403510,-0.027
1681411068735103382,0.006
1681411068742803294,-0.043000000000000003,84
1681411068750502748,-0.064
1681411068758202202,-0.014
1681411068765901656,0.014
1681411068773601110,0.024
1681411068781300564,0.027
1681411068789000018,-0.027
1681411068796699472,-0.062
1681411068804398926,-0.064
1681411068812098380,-0.153
1681411068819797834,-0.259
1681411068827497288,-0.247
1681411068835196742,-0.23700000000000002,,638
1681411068842896196,-0.259
1681411068850595650,-0.228
1681411068858295104,-0.201
1681411068865994558,-0.259
1681411068873694012,-0.374
1681411068881393466,-0.432
1681411068889092920,-0.401
1681411068896792374,-0.368
1681411068904491828,-0.363
1681411068912191282,-0.34
1681411068919890736,-0.307
1681411068927590190,-0.28200000000000003
1681411068935289644,-0.257
1681411068942989098,-0.21
1681411068950688552,-0.166
1681411068958388006,-0.155
1681411068966087460,-0.17200000000000001
1681411068973786914,-0.18
1681411068981486368,-0.16
1681411068989185822,-0.14100000000000001
1681411068996885276,-0.14300000000000002
1681411069004584730,-0.135
1681411069012284184,-0.11
1681411069019983638,-0.101
1681411069027683092,-0.124
1681411069035382546,-0.149
1681411069043082000,-0.149
1681411069050781454,-0.135
1681411069058480908,-0.147
1681411069066180362,-0.185
1681411069073879816,-0.201
1681411069081579270,-0.189
1681411069089278724,-0.17200000000000001
1681411069096978178,-0.162
1681411069104677632,-0.178
1681411069112377086,-0.21
1681411069120076540,-0.245
1681411069127775994,-0.28
1681411069135475448,-0.245
1681411069143174902,-0.187
1681411069150874356,-0.178
1681411069158573810,-0.222
1681411069166273264,-0.299
1681411069173972718,-0.303
1681411069181672172,-0.23
1681411069189371626,-0.247
1681411069197071080,-0.32
1681411069204770534,-0.313
1681411069212469988,-0.289
1681411069220169442,-0.299
1681411069227868896,-0.297
1681411069235568350,-0.276
1681411069243267804,-0.268
1681411069250967258,-0.261
1681411069258666712,-0.249
1681411069266366166,-0.23900000000000002
1681411069274065620,-0.228
1681411069281765074,-0.224
1681411069289464528,-0.145
1681411069297163982,0.193
1681411069304863472,0.74
1681411069312564041,1.014
1681411069320264610,0.405
1681411069327965179,-0.717
1681411069335665748,-0.937
1681411069343366317,-0.305
1681411069351066886,-0.128
1681411069358767455,-0.361
1681411069366468024,-0.318
1681411069374168593,-0.176
1681411069381869162,-0.268
1681411069389569731,-0.382
1681411069397270300,-0.318
1681411069404970869,-0.243
1681411069412671438,-0.257
1681411069420372007,-0.268
1681411069428072576,-0.226
1681411069435773145,-0.191
1681411069443473714,-0.187
1681411069451174283,-0.166
1681411069458874852,-0.124
1681411069466575421,-0.108
1681411069474275990,-0.106
1681411069481976559,-0.089
1681411069489677128,-0.049
1681411069497377697,-0.02,,658
1681411069505078266,-0.018000000000000002
1681411069512778835,-0.018000000000000002
1681411069520479404,-0.027
1681411069528179973,-0.085
1681411069535880542,-0.135
1681411069543581111,-0.12
1681411069551281680,-0.089
1681411069558982249,-0.079
1681411069566682818,-0.079
1681411069574383387,-0.083
1681411069582083956,-0.081
1681411069589784525,-0.083
1681411069597485094,-0.095
1681411069605185663,-0.093
1681411069612886232,-0.083
1681411069620586801,-0.101
1681411069628287370,-0.12
1681411069635987939,-0.099
1681411069643688508,-0.064
1681411069651389077,-0.051000000000000004
1681411069659089646,-0.054
1681411069666790215,-0.049
1681411069674490784,-0.031
1681411069682191353,-0.018000000000000002
1681411069689891922,-0.012
1681411069697592491,-0.008
1681411069705293060,-0.027
1681411069712993629,-0.112
1681411069720694198,-0.222
1681411069728394767,-0.23700000000000002
1681411069736095336,-0.168
1681411069743795905,-0.149
1681411069751496474,-0.17200000000000001
1681411069759197043,-0.164
1681411069766897612,-0.17
1681411069774598181,-0.222
1681411069782298750,-0.264
1681411069789999319,-0.245
1681411069797699888,-0.203
1681411069805400457,-0.178
1681411069813101026,-0.176
1681411069820801595,-0.185
1681411069828502164,-0.216
1681411069836202733,-0.251
1681411069843903302,-0.232
1681411069851603871,-0.203
1681411069859304440,-0.264
1681411069867005033,-0.386,85
1681411069874703790,-0.41300000000000003
1681411069882402547,-0.326
1681411069890101304,-0.27
1681411069897800061,-0.247
1681411069905498818,-0.182
1681411069913197575,-0.166
1681411069920896332,-0.232
1681411069928595089,-0.28400000000000003
1681411069936293846,-0.272
1681411069943992603,-0.253
1681411069951691360,-0.309
1681411069959390117,-0.309
1681411069967088874,-0.20700000000000002
1681411069974787631,-0.168
1681411069982486388,0.012
1681411069990185145,0.5710000000000001
1681411069997883902,1.062
1681411070005582659,0.761
1681411070013281416,-0.324
1681411070020980173,-0.971
1681411070028678930,-0.586
1681411070036377687,-0.28
1681411070044076444,-0.424
1681411070051775201,-0.33
1681411070059473958,-0.126
1681411070067172715,-0.133
1681411070074871472,-0.147
1681411070082570229,-0.106
1681411070090268986,-0.108
1681411070097967743,-0.108
1681411070105666500,-0.066
1681411070113365257,-0.014
1681411070121064014,0.004
1681411070128762771,-0.033
1681411070136461528,-0.074
1681411070144160285,-0.024
1681411070151859042,0.062
1681411070159557799,0.07200000000000001
1681411070167256556,0.051000000000000004,,672
1681411070174955313,0.07
1681411070182654070,0.08700000000000001
1681411070190352827,0.083
1681411070198051584,0.089
1681411070205750341,0.095
1681411070213449098,0.051000000000000004
1681411070221147855,0.0
1681411070228846612,-0.02
1681411070236545369,-0.049
1681411070244244126,-0.047
1681411070251942883,0.008
1681411070259641640,0.016
1681411070267340397,-0.045
1681411070275039154,-0.068
1681411070282737911,-0.051000000000000004
1681411070290436668,-0.06
1681411070298135425,-0.06
1681411070305834182,-0.039
1681411070313532939,-0.054
1681411070321231696,-0.074
1681411070328930453,-0.058
1681411070336629210,-0.039
1681411070344327967,-0.033
1681411070352026724,-0.031
1681411070359725481,-0.054
1681411070367424238,-0.135
1681411070375122995,-0.218
1681411070382821752,-0.22
1681411070390520509,-0.17400000000000002
1681411070398219266,-0.164
1681411070405918023,-0.182
1681411070413616780,-0.178
1681411070421315537,-0.145
1681411070429014346,-0.126,85
1681411070436714148,-0.147
1681411070444413950,-0.187
1681411070452113752,-0.22
1681411070459813554,-0.27
1681411070467513356,-0.34700000000000003
1681411070475213158,-0.363
1681411070482912960,-0.316
1681411070490612762,-0.309
1681411070498312564,-0.34500000000000003
1681411070506012366,-0.359
1681411070513712168,-0.365
1681411070521411970,-0.372
1681411070529111772,-0.355
1681411070536811574,-0.33
1681411070544511376,-0.318
1681411070552211178,-0.316
1681411070559910980,-0.305
1681411070567610782,-0.28200000000000003
1681411070575310584,-0.243
1681411070583010386,-0.214
1681411070590710188,-0.20500000000000002
1681411070598409990,-0.18
1681411070606109792,-0.151
1681411070613809594,-0.18
1681411070621509396,-0.20700000000000002
1681411070629209198,-0.17400000000000002
1681411070636909000,-0.16
1681411070644608802,-0.176
1681411070652308604,-0.164
1681411070660008406,-0.126
1681411070667708208,-0.112
1681411070675408010,-0.14100000000000001
1681411070683107812,-0.137
1681411070690807614,0.137
1681411070698507416,0.731
1681411070706207218,1.153
1681411070713907020,0.74
1681411070721606822,-0.336
1681411070729306624,-0.8250000000000001
1681411070737006426,-0.357
1681411070744706228,-0.041
1681411070752406030,-0.191
1681411070760105832,-0.232
1681411070767805634,-0.168
1681411070775505436,-0.178
1681411070783205238,-0.17
1681411070790905040,-0.122
1681411070798604842,-0.114
1681411070806304644,-0.095
1681411070814004446,-0.047
1681411070821704248,-0.043000000000000003
1681411070829404050,-0.056
1681411070837103852,-0.022
1681411070844803654,0.02
1681411070852503456,0.031
1681411070860203258,0.033,,691
1681411070867903060,0.035
1681411070875602862,0.002
1681411070883302664,-0.06
1681411070891002466,-0.07200000000000001
1681411070898702268,-0.027
1681411070906402070,0.006
1681411070914101872,-0.01
1681411070921801674,-0.035
1681411070929501476,-0.029
1681411070937201278,-0.012
1681411070944901080,-0.02
1681411070952600882,-0.033
1681411070960300684,-0.029
1681411070968000486,-0.024
1681411070975700288,-0.031
1681411070983400090,-0.035
1681411070991099960,-0.027
1681411070998799484,-0.047
1681411071006499008,-0.106
1681411071014198532,-0.124
1681411071021898056,-0.091
1681411071029597580,-0.095
1681411071037297104,-0.139
1681411071044996628,-0.149
1681411071052696152,-0.137
1681411071060395676,-0.164
1681411071068095200,-0.212
1681411071075794724,-0.212
1681411071083494248,-0.17
1681411071091193772,-0.166
1681411071098893296,-0.191
1681411071106592820,-0.187
1681411071114292344,-0.185
1681411071121991868,-0.216
1681411071129691392,-0.243
1681411071137390916,-0.264
1681411071145090440,-0.28
1681411071152789964,-0.28200000000000003
1681411071160489488,-0.272
1681411071168189012,-0.253
1681411071175888536,-0.234
1681411071183588060,-0.23900000000000002
1681411071191287584,-0.259
1681411071198987108,-0.247
1681411071206686632,-0.218
1681411071214386156,-0.214
1681411071222085680,-0.214
1681411071229785204,-0.193
1681411071237484728,-0.185
1681411071245184252,-0.203
