ts,red,ir,green
2023-04-13 18:38:33.497569,89165.0,127662.0,6451.0
2023-04-13 18:38:33.508569,89162.0,127666.0,6452.0
2023-04-13 18:38:33.518569,89163.0,127665.0,6450.0
2023-04-13 18:38:33.529569,89149.0,127698.0,6453.0
2023-04-13 18:38:33.537569,89173.0,127697.0,6455.0
2023-04-13 18:38:33.548569,89174.0,127702.0,6470.0
2023-04-13 18:38:33.558569,89196.0,127751.0,6448.0
2023-04-13 18:38:33.569568,89188.0,127764.0,6464.0
2023-04-13 18:38:33.577568,89184.0,127781.0,6458.0
2023-04-13 18:38:33.588570,89188.0,127835.0,6453.0
2023-04-13 18:38:33.598569,89194.0,127848.0,6455.0
2023-04-13 18:38:33.608569,89187.0,127794.0,6454.0
2023-04-13 18:38:33.617570,89185.0,127785.0,6456.0
2023-04-13 18:38:33.628569,89186.0,127838.0,6462.0
2023-04-13 18:38:33.638569,89185.0,127841.0,6461.0
2023-04-13 18:38:33.648569,89182.0,127847.0,6465.0
2023-04-13 18:38:33.658569,89199.0,127874.0,6445.0
2023-04-13 18:38:33.667570,89194.0,127862.0,6466.0
2023-04-13 18:38:33.678569,89187.0,127863.0,6450.0
2023-04-13 18:38:33.688569,89183.0,127846.0,6444.0
2023-04-13 18:38:33.698569,89173.0,127840.0,6442.0
2023-04-13 18:38:33.708569,89161.0,127869.0,6447.0
2023-04-13 18:38:33.718569,89167.0,127872.0,6456.0
2023-04-13 18:38:33.728569,89166.0,127885.0,6459.0
2023-04-13 18:38:33.738569,89178.0,127883.0,6459.0
2023-04-13 18:38:33.748569,89186.0,127902.0,6455.0
2023-04-13 18:38:33.757569,89176.0,127901.0,6456.0
2023-04-13 18:38:33.768570,89179.0,127923.0,6454.0
2023-04-13 18:38:33.778570,89177.0,127856.0,6442.0
2023-04-13 18:38:33.788570,89179.0,127926.0,6463.0
2023-04-13 18:38:33.798570,89179.0,127867.0,6449.0
2023-04-13 18:38:33.808570,89203.0,127934.0,6460.0
2023-04-13 18:38:33.818570,89167.0,127899.0,6451.0
2023-04-13 18:38:33.827570,89174.0,127889.0,6449.0
2023-04-13 18:38:33.838570,89118.0,127887.0,6449.0
2023-04-13 18:38:33.847570,89108.0,127826.0,6441.0
2023-04-13 18:38:33.858569,89075.0,127752.0,6406.0
2023-04-13 18:38:33.867570,89043.0,127689.0,6382.0
2023-04-13 18:38:33.877570,88995.0,127561.0,6348.0
2023-04-13 18:38:33.887570,88959.0,127494.0,6360.0
2023-04-13 18:38:33.898569,88936.0,127426.0,6340.0
2023-04-13 18:38:33.908569,88915.0,127387.0,6360.0
2023-04-13 18:38:33.917570,88908.0,127372.0,6330.0
2023-04-13 18:38:33.927569,88897.0,127363.0,6337.0
2023-04-13 18:38:33.938569,88908.0,127375.0,6341.0
2023-04-13 18:38:33.948570,88902.0,127406.0,6365.0
2023-04-13 18:38:33.958570,88911.0,127438.0,6354.0
2023-04-13 18:38:33.967570,88889.0,127471.0,6382.0
2023-04-13 18:38:33.978570,88903.0,127480.0,6392.0
2023-04-13 18:38:33.988570,88915.0,127522.0,6378.0
2023-04-13 18:38:33.997570,88946.0,127516.0,6364.0
2023-04-13 18:38:34.007570,88950.0,127560.0,6408.0
2023-04-13 18:38:34.018570,88949.0,127595.0,6398.0
2023-04-13 18:38:34.028570,88951.0,127612.0,6403.0
2023-04-13 18:38:34.037570,88960.0,127651.0,6418.0
2023-04-13 18:38:34.047570,88969.0,127684.0,6422.0
2023-04-13 18:38:34.058570,89007.0,127725.0,6428.0
2023-04-13 18:38:34.068570,89036.0,127741.0,6424.0
2023-04-13 18:38:34.078570,89021.0,127771.0,6423.0
2023-04-13 18:38:34.088570,89046.0,127776.0,6429.0
2023-04-13 18:38:34.098569,89044.0,127761.0,6439.0
2023-04-13 18:38:34.108569,89023.0,127726.0,6432.0
2023-04-13 18:38:34.117570,89018.0,127686.0,6415.0
2023-04-13 18:38:34.127570,88997.0,127644.0,6420.0
2023-04-13 18:38:34.138569,88993.0,127609.0,6399.0
2023-04-13 18:38:34.148569,88969.0,127626.0,6387.0
2023-04-13 18:38:34.158569,88961.0,127600.0,6369.0
2023-04-13 18:38:34.167570,88913.0,127584.0,6406.0
2023-04-13 18:38:34.179570,88936.0,127595.0,6403.0
2023-04-13 18:38:34.188570,88910.0,127586.0,6394.0
2023-04-13 18:38:34.198570,88959.0,127604.0,6408.0
2023-04-13 18:38:34.207570,88969.0,127590.0,6399.0
2023-04-13 18:38:34.218570,88963.0,127614.0,6392.0
2023-04-13 18:38:34.227570,88971.0,127596.0,6395.0
2023-04-13 18:38:34.238570,88948.0,127617.0,6401.0
2023-04-13 18:38:34.247570,88930.0,127597.0,6407.0
2023-04-13 18:38:34.258570,88931.0,127617.0,6412.0
2023-04-13 18:38:34.267570,88913.0,127612.0,6409.0
2023-04-13 18:38:34.279570,88945.0,127622.0,6413.0
2023-04-13 18:38:34.287570,88933.0,127643.0,6408.0
2023-04-13 18:38:34.297570,88987.0,127639.0,6391.0
2023-04-13 18:38:34.307570,88979.0,127641.0,6429.0
2023-04-13 18:38:34.318570,89000.0,127638.0,6416.0
2023-04-13 18:38:34.327570,88971.0,127655.0,6403.0
2023-04-13 18:38:34.338570,88986.0,127673.0,6389.0
2023-04-13 18:38:34.347570,88959.0,127665.0,6424.0
2023-04-13 18:38:34.358569,88992.0,127685.0,6415.0
2023-04-13 18:38:34.367570,88984.0,127705.0,6417.0
2023-04-13 18:38:34.377570,88980.0,127671.0,6395.0
2023-04-13 18:38:34.387570,88995.0,127656.0,6411.0
2023-04-13 18:38:34.398569,88980.0,127656.0,6436.0
2023-04-13 18:38:34.408569,88988.0,127642.0,6428.0
2023-04-13 18:38:34.418569,88974.0,127657.0,6427.0
2023-04-13 18:38:34.427569,88970.0,127654.0,6429.0
2023-04-13 18:38:34.438569,88969.0,127634.0,6427.0
2023-04-13 18:38:34.448569,88962.0,127629.0,6423.0
2023-04-13 18:38:34.457569,88955.0,127618.0,6426.0
2023-04-13 18:38:34.467569,88980.0,127631.0,6429.0
2023-04-13 18:38:34.478569,88964.0,127625.0,6429.0
2023-04-13 18:38:34.488570,88969.0,127644.0,6431.0
2023-04-13 18:38:34.497570,88975.0,127644.0,6419.0
2023-04-13 18:38:34.507570,88975.0,127653.0,6408.0
2023-04-13 18:38:34.517570,88949.0,127659.0,6390.0
2023-04-13 18:38:34.528570,88978.0,127658.0,6397.0
2023-04-13 18:38:34.537570,88980.0,127667.0,6412.0
2023-04-13 18:38:34.548570,88987.0,127665.0,6420.0
2023-04-13 18:38:34.557570,88930.0,127717.0,6438.0
2023-04-13 18:38:34.568570,88979.0,127701.0,6430.0
2023-04-13 18:38:34.577570,88965.0,127681.0,6432.0
2023-04-13 18:38:34.587570,88965.0,127665.0,6429.0
2023-04-13 18:38:34.597570,88899.0,127619.0,6426.0
2023-04-13 18:38:34.608569,88896.0,127532.0,6410.0
2023-04-13 18:38:34.617570,88847.0,127447.0,6399.0
2023-04-13 18:38:34.627570,88833.0,127378.0,6352.0
2023-04-13 18:38:34.637570,88779.0,127295.0,6333.0
2023-04-13 18:38:34.648569,88738.0,127258.0,6363.0
2023-04-13 18:38:34.658569,88717.0,127242.0,6370.0
2023-04-13 18:38:34.667570,88739.0,127234.0,6368.0
2023-04-13 18:38:34.677569,88741.0,127236.0,6376.0
2023-04-13 18:38:34.688569,88766.0,127292.0,6369.0
2023-04-13 18:38:34.698569,88769.0,127310.0,6359.0
2023-04-13 18:38:34.707569,88770.0,127336.0,6386.0
2023-04-13 18:38:34.717569,88751.0,127350.0,6394.0
2023-04-13 18:38:34.728569,88786.0,127388.0,6395.0
2023-04-13 18:38:34.738569,88821.0,127376.0,6398.0
2023-04-13 18:38:34.747569,88842.0,127445.0,6406.0
2023-04-13 18:38:34.757569,88859.0,127466.0,6407.0
2023-04-13 18:38:34.768569,88867.0,127468.0,6401.0
2023-04-13 18:38:34.778569,88875.0,127516.0,6419.0
2023-04-13 18:38:34.787569,88887.0,127579.0,6422.0
2023-04-13 18:38:34.797569,88896.0,127640.0,6441.0
2023-04-13 18:38:34.808569,88913.0,127684.0,6446.0
2023-04-13 18:38:34.817569,88909.0,127715.0,6449.0
2023-04-13 18:38:34.827569,88969.0,127737.0,6443.0
2023-04-13 18:38:34.837569,88964.0,127724.0,6446.0
2023-04-13 18:38:34.848569,88947.0,127736.0,6439.0
2023-04-13 18:38:34.857570,88913.0,127719.0,6443.0
2023-04-13 18:38:34.867570,88928.0,127699.0,6429.0
2023-04-13 18:38:34.877570,88919.0,127625.0,6436.0
2023-04-13 18:38:34.888569,88941.0,127610.0,6432.0
2023-04-13 18:38:34.897570,88865.0,127547.0,6412.0
2023-04-13 18:38:34.908569,88901.0,127557.0,6409.0
2023-04-13 18:38:34.917570,88901.0,127579.0,6411.0
2023-04-13 18:38:34.928569,88900.0,127582.0,6418.0
2023-04-13 18:38:34.937569,88879.0,127563.0,6413.0
2023-04-13 18:38:34.948569,88883.0,127593.0,6421.0
2023-04-13 18:38:34.957569,88897.0,127598.0,6413.0
2023-04-13 18:38:34.968569,88901.0,127592.0,6425.0
2023-04-13 18:38:34.977569,88902.0,127640.0,6417.0
2023-04-13 18:38:34.988569,88891.0,127637.0,6421.0
2023-04-13 18:38:34.997569,88915.0,127623.0,6420.0
2023-04-13 18:38:35.007569,88918.0,127681.0,6423.0
2023-04-13 18:38:35.017569,88922.0,127687.0,6436.0
2023-04-13 18:38:35.028570,88926.0,127701.0,6424.0
2023-04-13 18:38:35.037570,88922.0,127618.0,6430.0
2023-04-13 18:38:35.048570,88939.0,127699.0,6439.0
2023-04-13 18:38:35.057570,88947.0,127715.0,6442.0
2023-04-13 18:38:35.067570,88956.0,127760.0,6409.0
2023-04-13 18:38:35.077570,88962.0,127747.0,6409.0
2023-04-13 18:38:35.087570,88965.0,127752.0,6436.0
2023-04-13 18:38:35.097570,88946.0,127769.0,6402.0
2023-04-13 18:38:35.107570,88941.0,127775.0,6454.0
2023-04-13 18:38:35.117570,88940.0,127788.0,6459.0
2023-04-13 18:38:35.127570,88970.0,127780.0,6456.0
2023-04-13 18:38:35.137570,88969.0,127783.0,6445.0
2023-04-13 18:38:35.147570,88962.0,127779.0,6444.0
2023-04-13 18:38:35.158569,88970.0,127783.0,6463.0
2023-04-13 18:38:35.167570,88971.0,127787.0,6453.0
2023-04-13 18:38:35.177569,88962.0,127795.0,6445.0
2023-04-13 18:38:35.188569,88961.0,127769.0,6437.0
2023-04-13 18:38:35.198569,88961.0,127774.0,6448.0
2023-04-13 18:38:35.207569,88937.0,127781.0,6454.0
2023-04-13 18:38:35.217569,88947.0,127759.0,6439.0
2023-04-13 18:38:35.227569,88958.0,127747.0,6451.0
2023-04-13 18:38:35.237569,88960.0,127729.0,6455.0
2023-04-13 18:38:35.247569,88996.0,127753.0,6407.0
2023-04-13 18:38:35.257569,88947.0,127750.0,6430.0
2023-04-13 18:38:35.267569,88963.0,127742.0,6430.0
2023-04-13 18:38:35.277569,88898.0,127762.0,6459.0
2023-04-13 18:38:35.289569,88909.0,127756.0,6442.0
2023-04-13 18:38:35.297569,88916.0,127791.0,6440.0
2023-04-13 18:38:35.307569,88967.0,127766.0,6409.0
2023-04-13 18:38:35.317569,88943.0,127751.0,6402.0
2023-04-13 18:38:35.327569,88956.0,127748.0,6422.0
2023-04-13 18:38:35.337569,88927.0,127716.0,6430.0
2023-04-13 18:38:35.347569,88925.0,127676.0,6402.0
2023-04-13 18:38:35.357569,88864.0,127614.0,6387.0
2023-04-13 18:38:35.367569,88809.0,127514.0,6390.0
2023-04-13 18:38:35.376569,88768.0,127444.0,6372.0
2023-04-13 18:38:35.389570,88754.0,127348.0,6335.0
2023-04-13 18:38:35.397570,88672.0,127276.0,6374.0
2023-04-13 18:38:35.408569,88680.0,127266.0,6358.0
2023-04-13 18:38:35.417570,88680.0,127263.0,6356.0
2023-04-13 18:38:35.427569,88700.0,127279.0,6354.0
2023-04-13 18:38:35.437569,88673.0,127283.0,6373.0
2023-04-13 18:38:35.448569,88675.0,127314.0,6364.0
2023-04-13 18:38:35.457569,88735.0,127326.0,6378.0
2023-04-13 18:38:35.467569,88738.0,127381.0,6372.0
2023-04-13 18:38:35.477569,88759.0,127404.0,6374.0
2023-04-13 18:38:35.488569,88767.0,127437.0,6383.0
2023-04-13 18:38:35.496569,88754.0,127460.0,6396.0
2023-04-13 18:38:35.507569,88800.0,127493.0,6361.0
2023-04-13 18:38:35.517569,88756.0,127532.0,6410.0
2023-04-13 18:38:35.528569,88776.0,127574.0,6409.0
2023-04-13 18:38:35.536569,88796.0,127609.0,6422.0
2023-04-13 18:38:35.547569,88853.0,127685.0,6441.0
2023-04-13 18:38:35.557569,88869.0,127735.0,6444.0
2023-04-13 18:38:35.568570,88893.0,127757.0,6452.0
2023-04-13 18:38:35.576569,88901.0,127774.0,6448.0
2023-04-13 18:38:35.587569,88907.0,127765.0,6438.0
2023-04-13 18:38:35.597569,88914.0,127728.0,6450.0
2023-04-13 18:38:35.608569,88871.0,127732.0,6435.0
2023-04-13 18:38:35.617569,88901.0,127709.0,6426.0
2023-04-13 18:38:35.626569,88880.0,127682.0,6416.0
2023-04-13 18:38:35.637569,88873.0,127658.0,6401.0
2023-04-13 18:38:35.648569,88862.0,127630.0,6422.0
2023-04-13 18:38:35.657569,88860.0,127629.0,6420.0
2023-04-13 18:38:35.667569,88864.0,127641.0,6415.0
2023-04-13 18:38:35.677569,88866.0,127615.0,6418.0
2023-04-13 18:38:35.687569,88862.0,127634.0,6426.0
2023-04-13 18:38:35.697569,88860.0,127622.0,6414.0
2023-04-13 18:38:35.706569,88860.0,127622.0,6417.0
2023-04-13 18:38:35.717569,88858.0,127646.0,6405.0
2023-04-13 18:38:35.727569,88864.0,127667.0,6410.0
2023-04-13 18:38:35.737569,88851.0,127694.0,6393.0
2023-04-13 18:38:35.746569,88862.0,127684.0,6390.0
2023-04-13 18:38:35.757569,88863.0,127687.0,6421.0
2023-04-13 18:38:35.767569,88880.0,127652.0,6448.0
2023-04-13 18:38:35.778569,88874.0,127665.0,6433.0
2023-04-13 18:38:35.786569,88875.0,127679.0,6449.0
2023-04-13 18:38:35.797569,88886.0,127678.0,6433.0
2023-04-13 18:38:35.807569,88866.0,127726.0,6432.0
2023-04-13 18:38:35.817569,88898.0,127700.0,6409.0
2023-04-13 18:38:35.826569,88889.0,127701.0,6413.0
2023-04-13 18:38:35.836569,88889.0,127697.0,6411.0
2023-04-13 18:38:35.847569,88895.0,127701.0,6395.0
2023-04-13 18:38:35.857569,88881.0,127703.0,6415.0
2023-04-13 18:38:35.867569,88889.0,127693.0,6421.0
2023-04-13 18:38:35.876569,88863.0,127701.0,6399.0
2023-04-13 18:38:35.887569,88883.0,127711.0,6398.0
2023-04-13 18:38:35.898569,88884.0,127718.0,6422.0
2023-04-13 18:38:35.907569,88876.0,127708.0,6443.0
2023-04-13 18:38:35.917569,88883.0,127705.0,6439.0
2023-04-13 18:38:35.927569,88879.0,127698.0,6437.0
2023-04-13 18:38:35.937569,88880.0,127701.0,6442.0
2023-04-13 18:38:35.947569,88889.0,127715.0,6436.0
2023-04-13 18:38:35.956570,88896.0,127733.0,6438.0
2023-04-13 18:38:35.967569,88895.0,127749.0,6449.0
2023-04-13 18:38:35.977569,88849.0,127739.0,6438.0
2023-04-13 18:38:35.988569,88878.0,127744.0,6445.0
2023-04-13 18:38:35.996569,88912.0,127670.0,6446.0
2023-04-13 18:38:36.007569,88896.0,127773.0,6447.0
2023-04-13 18:38:36.017569,88864.0,127767.0,6450.0
2023-04-13 18:38:36.027569,88867.0,127759.0,6456.0
2023-04-13 18:38:36.036569,88844.0,127744.0,6446.0
2023-04-13 18:38:36.047569,88833.0,127698.0,6443.0
2023-04-13 18:38:36.057569,88800.0,127673.0,6435.0
2023-04-13 18:38:36.067569,88781.0,127566.0,6414.0
2023-04-13 18:38:36.076569,88720.0,127482.0,6404.0
2023-04-13 18:38:36.087569,88678.0,127405.0,6395.0
2023-04-13 18:38:36.096569,88662.0,127330.0,6389.0
2023-04-13 18:38:36.107570,88651.0,127280.0,6358.0
2023-04-13 18:38:36.117570,88660.0,127280.0,6371.0
2023-04-13 18:38:36.127570,88656.0,127272.0,6348.0
2023-04-13 18:38:36.136570,88664.0,127286.0,6354.0
2023-04-13 18:38:36.147570,88654.0,127336.0,6375.0
2023-04-13 18:38:36.157570,88643.0,127360.0,6389.0
2023-04-13 18:38:36.167570,88659.0,127392.0,6397.0
2023-04-13 18:38:36.177569,88769.0,127394.0,6406.0
2023-04-13 18:38:36.187569,88732.0,127431.0,6408.0
2023-04-13 18:38:36.197569,88739.0,127445.0,6413.0
2023-04-13 18:38:36.207569,88746.0,127528.0,6400.0
2023-04-13 18:38:36.216570,88756.0,127556.0,6417.0
2023-04-13 18:38:36.227569,88776.0,127604.0,6412.0
2023-04-13 18:38:36.237569,88770.0,127629.0,6423.0
2023-04-13 18:38:36.247569,88801.0,127679.0,6425.0
2023-04-13 18:38:36.256569,88801.0,127710.0,6450.0
2023-04-13 18:38:36.267569,88827.0,127762.0,6450.0
2023-04-13 18:38:36.277569,88848.0,127776.0,6447.0
2023-04-13 18:38:36.287570,88831.0,127760.0,6460.0
2023-04-13 18:38:36.296570,88835.0,127745.0,6434.0
2023-04-13 18:38:36.307570,88843.0,127729.0,6414.0
2023-04-13 18:38:36.317570,88817.0,127679.0,6426.0
2023-04-13 18:38:36.327570,88794.0,127626.0,6424.0
2023-04-13 18:38:36.336570,88789.0,127618.0,6423.0
2023-04-13 18:38:36.346570,88785.0,127623.0,6418.0
2023-04-13 18:38:36.357570,88855.0,127575.0,6386.0
2023-04-13 18:38:36.367570,88786.0,127576.0,6419.0
2023-04-13 18:38:36.376570,88776.0,127567.0,6412.0
2023-04-13 18:38:36.386570,88786.0,127565.0,6409.0
2023-04-13 18:38:36.397570,88787.0,127563.0,6387.0
2023-04-13 18:38:36.407570,88791.0,127620.0,6382.0
2023-04-13 18:38:36.416570,88806.0,127596.0,6425.0
2023-04-13 18:38:36.427569,88807.0,127650.0,6429.0
2023-04-13 18:38:36.437569,88831.0,127654.0,6430.0
2023-04-13 18:38:36.447569,88858.0,127742.0,6449.0
2023-04-13 18:38:36.456570,88867.0,127738.0,6460.0
2023-04-13 18:38:36.467569,88876.0,127772.0,6457.0
2023-04-13 18:38:36.477569,88887.0,127781.0,6459.0
2023-04-13 18:38:36.487569,88904.0,127838.0,6461.0
2023-04-13 18:38:36.498569,88917.0,127857.0,6454.0
2023-04-13 18:38:36.506569,88919.0,127848.0,6466.0
2023-04-13 18:38:36.517569,88928.0,127890.0,6447.0
2023-04-13 18:38:36.527569,88931.0,127891.0,6470.0
2023-04-13 18:38:36.536569,88931.0,127926.0,6471.0
2023-04-13 18:38:36.546569,88897.0,127925.0,6470.0
2023-04-13 18:38:36.557569,88921.0,127919.0,6473.0
2023-04-13 18:38:36.567569,88897.0,127932.0,6466.0
2023-04-13 18:38:36.576569,88929.0,127929.0,6475.0
2023-04-13 18:38:36.586569,88941.0,127914.0,6463.0
2023-04-13 18:38:36.599569,88926.0,127944.0,6480.0
2023-04-13 18:38:36.606569,88944.0,127943.0,6468.0
2023-04-13 18:38:36.617569,88965.0,127978.0,6469.0
2023-04-13 18:38:36.626569,88981.0,127985.0,6471.0
2023-04-13 18:38:36.637569,88946.0,128029.0,6470.0
2023-04-13 18:38:36.647570,88969.0,128037.0,6467.0
2023-04-13 18:38:36.657570,88955.0,128056.0,6497.0
2023-04-13 18:38:36.666570,89004.0,128070.0,6500.0
2023-04-13 18:38:36.677569,89003.0,128081.0,6495.0
2023-04-13 18:38:36.687569,89019.0,128066.0,6501.0
2023-04-13 18:38:36.699570,89019.0,128028.0,6498.0
2023-04-13 18:38:36.706570,89018.0,128042.0,6491.0
2023-04-13 18:38:36.717569,89035.0,128064.0,6501.0
2023-04-13 18:38:36.726570,89008.0,128050.0,6483.0
2023-04-13 18:38:36.737569,88968.0,127979.0,6470.0
2023-04-13 18:38:36.746569,88933.0,127904.0,6443.0
2023-04-13 18:38:36.757569,88896.0,127830.0,6441.0
2023-04-13 18:38:36.766569,88856.0,127764.0,6423.0
2023-04-13 18:38:36.777569,88820.0,127711.0,6410.0
2023-04-13 18:38:36.786569,88783.0,127675.0,6416.0
2023-04-13 18:38:36.797569,88760.0,127660.0,6420.0
2023-04-13 18:38:36.806569,88742.0,127638.0,6407.0
2023-04-13 18:38:36.817569,88797.0,127639.0,6363.0
2023-04-13 18:38:36.826570,88796.0,127644.0,6383.0
2023-04-13 18:38:36.836570,88794.0,127621.0,6367.0
2023-04-13 18:38:36.846570,88747.0,127612.0,6402.0
2023-04-13 18:38:36.857570,88768.0,127623.0,6398.0
2023-04-13 18:38:36.867570,88722.0,127628.0,6396.0
2023-04-13 18:38:36.876570,88772.0,127640.0,6403.0
2023-04-13 18:38:36.887570,88769.0,127630.0,6400.0
2023-04-13 18:38:36.896570,88810.0,127642.0,6372.0
2023-04-13 18:38:36.907570,88778.0,127647.0,6356.0
2023-04-13 18:38:36.916570,88777.0,127665.0,6408.0
2023-04-13 18:38:36.926570,88788.0,127698.0,6396.0
2023-04-13 18:38:36.937569,88796.0,127712.0,6399.0
2023-04-13 18:38:36.947569,88812.0,127728.0,6413.0
2023-04-13 18:38:36.956570,88821.0,127726.0,6396.0
2023-04-13 18:38:36.966570,88811.0,127730.0,6408.0
2023-04-13 18:38:36.976570,88798.0,127707.0,6409.0
2023-04-13 18:38:36.987569,88789.0,127666.0,6362.0
2023-04-13 18:38:36.997569,88773.0,127631.0,6383.0
2023-04-13 18:38:37.006569,88760.0,127609.0,6387.0
2023-04-13 18:38:37.017569,88739.0,127526.0,6375.0
2023-04-13 18:38:37.027569,88722.0,127550.0,6370.0
2023-04-13 18:38:37.036569,88718.0,127534.0,6378.0
2023-04-13 18:38:37.046569,88711.0,127531.0,6381.0
2023-04-13 18:38:37.056569,88672.0,127502.0,6368.0
2023-04-13 18:38:37.067569,88688.0,127515.0,6338.0
2023-04-13 18:38:37.076569,88629.0,127529.0,6361.0
2023-04-13 18:38:37.086569,88693.0,127520.0,6366.0
2023-04-13 18:38:37.096569,88680.0,127512.0,6359.0
2023-04-13 18:38:37.107569,88704.0,127507.0,6361.0
2023-04-13 18:38:37.117569,88671.0,127525.0,6366.0
2023-04-13 18:38:37.126569,88675.0,127534.0,6380.0
2023-04-13 18:38:37.136569,88659.0,127541.0,6379.0
2023-04-13 18:38:37.147569,88668.0,127533.0,6378.0
2023-04-13 18:38:37.157569,88670.0,127545.0,6384.0
2023-04-13 18:38:37.166569,88635.0,127578.0,6376.0
2023-04-13 18:38:37.176569,88690.0,127575.0,6388.0
2023-04-13 18:38:37.187569,88682.0,127581.0,6383.0
2023-04-13 18:38:37.197569,88677.0,127603.0,6383.0
2023-04-13 18:38:37.206570,88720.0,127582.0,6379.0
2023-04-13 18:38:37.216570,88668.0,127591.0,6379.0
2023-04-13 18:38:37.227569,88693.0,127603.0,6369.0
2023-04-13 18:38:37.236570,88678.0,127600.0,6382.0
2023-04-13 18:38:37.246569,88697.0,127590.0,6386.0
2023-04-13 18:38:37.256569,88651.0,127577.0,6369.0
2023-04-13 18:38:37.267569,88718.0,127612.0,6378.0
2023-04-13 18:38:37.277569,88716.0,127551.0,6388.0
2023-04-13 18:38:37.286569,88739.0,127598.0,6393.0
2023-04-13 18:38:37.296569,88738.0,127550.0,6384.0
2023-04-13 18:38:37.307569,88728.0,127542.0,6393.0
2023-04-13 18:38:37.316569,88673.0,127611.0,6383.0
2023-04-13 18:38:37.326569,88720.0,127607.0,6374.0
2023-04-13 18:38:37.336569,88717.0,127594.0,6374.0
2023-04-13 18:38:37.346569,88718.0,127610.0,6375.0
2023-04-13 18:38:37.356569,88689.0,127594.0,6390.0
2023-04-13 18:38:37.367570,88682.0,127599.0,6391.0
2023-04-13 18:38:37.376570,88629.0,127534.0,6379.0
2023-04-13 18:38:37.387570,88677.0,127474.0,6371.0
2023-04-13 18:38:37.397570,88652.0,127380.0,6352.0
2023-04-13 18:38:37.407570,88621.0,127353.0,6327.0
2023-04-13 18:38:37.416570,88581.0,127220.0,6323.0
2023-04-13 18:38:37.426570,88543.0,127175.0,6327.0
2023-04-13 18:38:37.437569,88571.0,127176.0,6311.0
2023-04-13 18:38:37.446570,88505.0,127151.0,6307.0
2023-04-13 18:38:37.456570,88489.0,127177.0,6292.0
2023-04-13 18:38:37.466570,88473.0,127164.0,6306.0
2023-04-13 18:38:37.477569,88516.0,127174.0,6310.0
2023-04-13 18:38:37.486570,88501.0,127205.0,6327.0
2023-04-13 18:38:37.496569,88512.0,127222.0,6313.0
2023-04-13 18:38:37.506569,88540.0,127242.0,6328.0
2023-04-13 18:38:37.516569,88559.0,127261.0,6285.0
2023-04-13 18:38:37.526569,88548.0,127282.0,6314.0
2023-04-13 18:38:37.536569,88574.0,127311.0,6306.0
2023-04-13 18:38:37.546569,88592.0,127331.0,6329.0
2023-04-13 18:38:37.556569,88603.0,127364.0,6333.0
2023-04-13 18:38:37.566569,88578.0,127387.0,6348.0
2023-04-13 18:38:37.576569,88593.0,127424.0,6365.0
2023-04-13 18:38:37.586569,88625.0,127477.0,6346.0
2023-04-13 18:38:37.596569,88640.0,127436.0,6372.0
2023-04-13 18:38:37.606569,88664.0,127464.0,6373.0
2023-04-13 18:38:37.617569,88651.0,127539.0,6348.0
2023-04-13 18:38:37.626569,88691.0,127516.0,6379.0
2023-04-13 18:38:37.636569,88689.0,127473.0,6384.0
2023-04-13 18:38:37.646569,88677.0,127437.0,6369.0
2023-04-13 18:38:37.657569,88658.0,127426.0,6358.0
2023-04-13 18:38:37.666569,88638.0,127400.0,6361.0
2023-04-13 18:38:37.676569,88618.0,127421.0,6362.0
2023-04-13 18:38:37.686569,88636.0,127409.0,6358.0
2023-04-13 18:38:37.697569,88635.0,127398.0,6353.0
2023-04-13 18:38:37.706569,88616.0,127378.0,6354.0
2023-04-13 18:38:37.716569,88632.0,127386.0,6342.0
2023-04-13 18:38:37.726570,88625.0,127388.0,6349.0
2023-04-13 18:38:37.737569,88633.0,127344.0,6347.0
2023-04-13 18:38:37.746569,88628.0,127384.0,6353.0
2023-04-13 18:38:37.756569,88627.0,127392.0,6367.0
2023-04-13 18:38:37.766569,88629.0,127389.0,6320.0
2023-04-13 18:38:37.776569,88639.0,127417.0,6348.0
2023-04-13 18:38:37.786569,88648.0,127426.0,6336.0
2023-04-13 18:38:37.796569,88665.0,127431.0,6365.0
2023-04-13 18:38:37.807569,88632.0,127446.0,6373.0
2023-04-13 18:38:37.816569,88636.0,127450.0,6356.0
2023-04-13 18:38:37.826569,88665.0,127491.0,6371.0
2023-04-13 18:38:37.836569,88679.0,127480.0,6367.0
2023-04-13 18:38:37.846569,88671.0,127495.0,6372.0
2023-04-13 18:38:37.857569,88689.0,127515.0,6365.0
2023-04-13 18:38:37.866569,88694.0,127528.0,6371.0
2023-04-13 18:38:37.875569,88706.0,127566.0,6384.0
2023-04-13 18:38:37.886569,88713.0,127588.0,6379.0
2023-04-13 18:38:37.896569,88735.0,127604.0,6373.0
2023-04-13 18:38:37.908570,88749.0,127616.0,6394.0
2023-04-13 18:38:37.916570,88760.0,127636.0,6404.0
2023-04-13 18:38:37.926570,88777.0,127657.0,6402.0
2023-04-13 18:38:37.936570,88780.0,127673.0,6402.0
2023-04-13 18:38:37.946570,88772.0,127696.0,6370.0
2023-04-13 18:38:37.955570,88793.0,127680.0,6384.0
2023-04-13 18:38:37.966570,88804.0,127706.0,6401.0
2023-04-13 18:38:37.976570,88809.0,127729.0,6400.0
2023-04-13 18:38:37.987569,88795.0,127739.0,6409.0
2023-04-13 18:38:37.995569,88793.0,127726.0,6403.0
2023-04-13 18:38:38.006569,88761.0,127682.0,6402.0
2023-04-13 18:38:38.016569,88744.0,127613.0,6382.0
2023-04-13 18:38:38.026569,88722.0,127535.0,6347.0
2023-04-13 18:38:38.035569,88665.0,127440.0,6325.0
2023-04-13 18:38:38.046569,88666.0,127378.0,6325.0
2023-04-13 18:38:38.056569,88635.0,127331.0,6327.0
2023-04-13 18:38:38.066569,88617.0,127307.0,6351.0
2023-04-13 18:38:38.075569,88557.0,127281.0,6347.0
2023-04-13 18:38:38.086570,88583.0,127279.0,6318.0
2023-04-13 18:38:38.096570,88589.0,127287.0,6320.0
2023-04-13 18:38:38.106570,88592.0,127318.0,6337.0
2023-04-13 18:38:38.116570,88582.0,127332.0,6353.0
2023-04-13 18:38:38.126570,88636.0,127355.0,6321.0
2023-04-13 18:38:38.135570,88626.0,127367.0,6321.0
2023-04-13 18:38:38.146570,88658.0,127421.0,6305.0
2023-04-13 18:38:38.156570,88646.0,127401.0,6358.0
2023-04-13 18:38:38.166570,88649.0,127461.0,6363.0
2023-04-13 18:38:38.176570,88660.0,127470.0,6360.0
2023-04-13 18:38:38.186570,88673.0,127455.0,6358.0
2023-04-13 18:38:38.196570,88672.0,127477.0,6367.0
2023-04-13 18:38:38.206570,88693.0,127531.0,6367.0
2023-04-13 18:38:38.215570,88714.0,127530.0,6366.0
2023-04-13 18:38:38.226570,88730.0,127589.0,6366.0
2023-04-13 18:38:38.236570,88705.0,127608.0,6401.0
2023-04-13 18:38:38.246569,88727.0,127540.0,6384.0
2023-04-13 18:38:38.256569,88723.0,127534.0,6367.0
2023-04-13 18:38:38.266569,88707.0,127546.0,6364.0
2023-04-13 18:38:38.276569,88705.0,127450.0,6367.0
2023-04-13 18:38:38.286569,88702.0,127483.0,6365.0
2023-04-13 18:38:38.296569,88680.0,127453.0,6355.0
2023-04-13 18:38:38.305570,88669.0,127451.0,6354.0
2023-04-13 18:38:38.316569,88658.0,127416.0,6322.0
2023-04-13 18:38:38.325569,88651.0,127368.0,6353.0
2023-04-13 18:38:38.336569,88646.0,127417.0,6329.0
2023-04-13 18:38:38.346569,88652.0,127395.0,6335.0
2023-04-13 18:38:38.356569,88664.0,127393.0,6349.0
2023-04-13 18:38:38.367569,88640.0,127403.0,6350.0
2023-04-13 18:38:38.375569,88646.0,127411.0,6347.0
2023-04-13 18:38:38.386569,88653.0,127428.0,6348.0
2023-04-13 18:38:38.396569,88647.0,127408.0,6347.0
2023-04-13 18:38:38.407569,88661.0,127396.0,6349.0
2023-04-13 18:38:38.415569,88665.0,127387.0,6352.0
2023-04-13 18:38:38.426569,88661.0,127452.0,6356.0
2023-04-13 18:38:38.436569,88659.0,127455.0,6351.0
2023-04-13 18:38:38.447569,88677.0,127475.0,6346.0
2023-04-13 18:38:38.455569,88664.0,127439.0,6366.0
2023-04-13 18:38:38.466569,88676.0,127471.0,6363.0
2023-04-13 18:38:38.476569,88669.0,127446.0,6363.0
2023-04-13 18:38:38.487569,88688.0,127497.0,6365.0
2023-04-13 18:38:38.495569,88707.0,127496.0,6371.0
2023-04-13 18:38:38.505569,88693.0,127510.0,6368.0
2023-04-13 18:38:38.516569,88696.0,127507.0,6359.0
2023-04-13 18:38:38.526569,88703.0,127487.0,6379.0
2023-04-13 18:38:38.535569,88705.0,127507.0,6373.0
2023-04-13 18:38:38.546569,88710.0,127538.0,6384.0
2023-04-13 18:38:38.556569,88715.0,127529.0,6380.0
2023-04-13 18:38:38.566569,88703.0,127525.0,6381.0
2023-04-13 18:38:38.575569,88715.0,127526.0,6365.0
2023-04-13 18:38:38.586569,88717.0,127529.0,6380.0
2023-04-13 18:38:38.596569,88713.0,127519.0,6374.0
2023-04-13 18:38:38.606569,88703.0,127503.0,6363.0
2023-04-13 18:38:38.616569,88708.0,127512.0,6365.0
2023-04-13 18:38:38.626570,88692.0,127455.0,6372.0
2023-04-13 18:38:38.636570,88659.0,127375.0,6360.0
2023-04-13 18:38:38.646570,88631.0,127377.0,6353.0
2023-04-13 18:38:38.656570,88589.0,127284.0,6344.0
2023-04-13 18:38:38.665570,88583.0,127211.0,6312.0
2023-04-13 18:38:38.676570,88546.0,127149.0,6279.0
2023-04-13 18:38:38.686570,88519.0,127105.0,6283.0
2023-04-13 18:38:38.696570,88516.0,127094.0,6310.0
2023-04-13 18:38:38.705570,88443.0,127087.0,6311.0
2023-04-13 18:38:38.716570,88463.0,127084.0,6313.0
2023-04-13 18:38:38.725570,88507.0,127107.0,6299.0
2023-04-13 18:38:38.736570,88517.0,127109.0,6320.0
2023-04-13 18:38:38.745570,88532.0,127144.0,6324.0
2023-04-13 18:38:38.756569,88533.0,127186.0,6294.0
2023-04-13 18:38:38.765570,88542.0,127188.0,6315.0
2023-04-13 18:38:38.776569,88569.0,127221.0,6312.0
2023-04-13 18:38:38.785570,88573.0,127250.0,6317.0
2023-04-13 18:38:38.795570,88579.0,127288.0,6321.0
2023-04-13 18:38:38.805570,88597.0,127326.0,6338.0
2023-04-13 18:38:38.816569,88629.0,127346.0,6343.0
2023-04-13 18:38:38.825569,88677.0,127440.0,6346.0
2023-04-13 18:38:38.836569,88656.0,127455.0,6349.0
2023-04-13 18:38:38.845569,88687.0,127523.0,6387.0
2023-04-13 18:38:38.856569,88664.0,127543.0,6386.0
2023-04-13 18:38:38.866569,88672.0,127529.0,6390.0
2023-04-13 18:38:38.875569,88658.0,127533.0,6406.0
2023-04-13 18:38:38.885569,88642.0,127511.0,6387.0
2023-04-13 18:38:38.896569,88628.0,127466.0,6387.0
2023-04-13 18:38:38.906569,88615.0,127441.0,6380.0
2023-04-13 18:38:38.916569,88635.0,127447.0,6361.0
2023-04-13 18:38:38.926569,88641.0,127426.0,6363.0
2023-04-13 18:38:38.936569,88639.0,127413.0,6366.0
2023-04-13 18:38:38.946569,88636.0,127400.0,6372.0
2023-04-13 18:38:38.955569,88635.0,127418.0,6371.0
2023-04-13 18:38:38.966569,88640.0,127435.0,6372.0
2023-04-13 18:38:38.976569,88640.0,127446.0,6367.0
2023-04-13 18:38:38.986570,88641.0,127436.0,6371.0
2023-04-13 18:38:38.995570,88645.0,127485.0,6336.0
2023-04-13 18:38:39.005570,88595.0,127447.0,6374.0
2023-04-13 18:38:39.017570,88626.0,127465.0,6377.0
2023-04-13 18:38:39.026570,88641.0,127475.0,6367.0
2023-04-13 18:38:39.035570,88639.0,127511.0,6385.0
2023-04-13 18:38:39.045570,88636.0,127527.0,6379.0
2023-04-13 18:38:39.056570,88626.0,127543.0,6374.0
2023-04-13 18:38:39.066570,88682.0,127570.0,6380.0
2023-04-13 18:38:39.075570,88678.0,127573.0,6384.0
2023-04-13 18:38:39.085570,88682.0,127533.0,6396.0
2023-04-13 18:38:39.096570,88687.0,127572.0,6386.0
2023-04-13 18:38:39.106570,88681.0,127573.0,6384.0
2023-04-13 18:38:39.117570,88671.0,127584.0,6389.0
2023-04-13 18:38:39.125569,88703.0,127573.0,6367.0
2023-04-13 18:38:39.135569,88670.0,127571.0,6384.0
2023-04-13 18:38:39.146569,88684.0,127534.0,6377.0
2023-04-13 18:38:39.156569,88695.0,127583.0,6388.0
2023-04-13 18:38:39.165570,88685.0,127564.0,6389.0
2023-04-13 18:38:39.175570,88678.0,127561.0,6373.0
2023-04-13 18:38:39.186570,88679.0,127549.0,6366.0
2023-04-13 18:38:39.196570,88640.0,127561.0,6367.0
2023-04-13 18:38:39.205570,88669.0,127543.0,6415.0
2023-04-13 18:38:39.215570,88631.0,127534.0,6388.0
2023-04-13 18:38:39.226570,88622.0,127540.0,6381.0
2023-04-13 18:38:39.235570,88672.0,127574.0,6375.0
2023-04-13 18:38:39.245570,88664.0,127558.0,6380.0
2023-04-13 18:38:39.255570,88655.0,127543.0,6370.0
2023-04-13 18:38:39.266569,88664.0,127543.0,6381.0
2023-04-13 18:38:39.275570,88643.0,127505.0,6382.0
2023-04-13 18:38:39.285570,88645.0,127491.0,6375.0
2023-04-13 18:38:39.295570,88606.0,127409.0,6361.0
2023-04-13 18:38:39.306569,88578.0,127362.0,6347.0
2023-04-13 18:38:39.315570,88536.0,127282.0,6343.0
2023-04-13 18:38:39.325569,88507.0,127177.0,6322.0
2023-04-13 18:38:39.335569,88454.0,127147.0,6312.0
2023-04-13 18:38:39.346570,88435.0,127114.0,6315.0
2023-04-13 18:38:39.355570,88411.0,127087.0,6306.0
2023-04-13 18:38:39.366570,88437.0,127069.0,6309.0
2023-04-13 18:38:39.375570,88429.0,127064.0,6316.0
2023-04-13 18:38:39.386570,88434.0,127065.0,6304.0
2023-04-13 18:38:39.395570,88441.0,127069.0,6308.0
2023-04-13 18:38:39.405570,88436.0,127120.0,6301.0
2023-04-13 18:38:39.415570,88456.0,127124.0,6324.0
2023-04-13 18:38:39.426570,88460.0,127180.0,6313.0
2023-04-13 18:38:39.435570,88496.0,127200.0,6332.0
2023-04-13 18:38:39.446570,88483.0,127225.0,6342.0
2023-04-13 18:38:39.455570,88505.0,127238.0,6342.0
2023-04-13 18:38:39.466570,88501.0,127258.0,6346.0
2023-04-13 18:38:39.475570,88533.0,127259.0,6354.0
2023-04-13 18:38:39.486570,88541.0,127312.0,6346.0
2023-04-13 18:38:39.495570,88556.0,127327.0,6357.0
2023-04-13 18:38:39.505570,88571.0,127381.0,6358.0
2023-04-13 18:38:39.515570,88592.0,127378.0,6380.0
2023-04-13 18:38:39.526569,88590.0,127385.0,6372.0
2023-04-13 18:38:39.535570,88586.0,127446.0,6354.0
2023-04-13 18:38:39.545570,88588.0,127363.0,6364.0
2023-04-13 18:38:39.555570,88554.0,127314.0,6349.0
2023-04-13 18:38:39.565570,88555.0,127297.0,6353.0
2023-04-13 18:38:39.575569,88551.0,127337.0,6345.0
2023-04-13 18:38:39.585569,88534.0,127314.0,6346.0
2023-04-13 18:38:39.595569,88534.0,127340.0,6345.0
2023-04-13 18:38:39.605569,88494.0,127306.0,6337.0
2023-04-13 18:38:39.616569,88492.0,127296.0,6357.0
2023-04-13 18:38:39.625569,88464.0,127313.0,6334.0
2023-04-13 18:38:39.635569,88504.0,127289.0,6311.0
2023-04-13 18:38:39.645569,88512.0,127278.0,6306.0
2023-04-13 18:38:39.656569,88529.0,127282.0,6303.0
2023-04-13 18:38:39.664569,88525.0,127292.0,6331.0
2023-04-13 18:38:39.675569,88525.0,127303.0,6323.0
2023-04-13 18:38:39.685569,88528.0,127301.0,6334.0
2023-04-13 18:38:39.696569,88522.0,127309.0,6339.0
2023-04-13 18:38:39.704569,88531.0,127313.0,6353.0
2023-04-13 18:38:39.715569,88531.0,127339.0,6338.0
2023-04-13 18:38:39.726569,88502.0,127350.0,6342.0
2023-04-13 18:38:39.736569,88539.0,127351.0,6354.0
2023-04-13 18:38:39.744569,88540.0,127366.0,6320.0
2023-04-13 18:38:39.755569,88543.0,127367.0,6324.0
2023-04-13 18:38:39.765569,88546.0,127378.0,6344.0
2023-04-13 18:38:39.776569,88543.0,127410.0,6375.0
2023-04-13 18:38:39.784569,88549.0,127385.0,6358.0
2023-04-13 18:38:39.795569,88535.0,127382.0,6359.0
2023-04-13 18:38:39.805569,88537.0,127392.0,6358.0
2023-04-13 18:38:39.816569,88537.0,127388.0,6355.0
2023-04-13 18:38:39.825569,88538.0,127382.0,6358.0
2023-04-13 18:38:39.835569,88494.0,127374.0,6367.0
2023-04-13 18:38:39.845569,88501.0,127381.0,6366.0
2023-04-13 18:38:39.855569,88517.0,127382.0,6348.0
2023-04-13 18:38:39.865569,88539.0,127394.0,6344.0
2023-04-13 18:38:39.875569,88537.0,127401.0,6333.0
2023-04-13 18:38:39.885570,88554.0,127404.0,6332.0
2023-04-13 18:38:39.895570,88550.0,127414.0,6317.0
2023-04-13 18:38:39.905570,88509.0,127417.0,6369.0
2023-04-13 18:38:39.915570,88513.0,127424.0,6372.0
2023-04-13 18:38:39.925570,88486.0,127408.0,6380.0
2023-04-13 18:38:39.935570,88531.0,127414.0,6363.0
2023-04-13 18:38:39.945570,88511.0,127428.0,6370.0
2023-04-13 18:38:39.955570,88508.0,127463.0,6371.0
2023-04-13 18:38:39.965570,88532.0,127384.0,6369.0
2023-04-13 18:38:39.976570,88523.0,127348.0,6353.0
2023-04-13 18:38:39.985570,88502.0,127240.0,6339.0
2023-04-13 18:38:39.995570,88478.0,127262.0,6340.0
2023-04-13 18:38:40.005570,88451.0,127186.0,6322.0
2023-04-13 18:38:40.016569,88398.0,127132.0,6314.0
2023-04-13 18:38:40.025570,88378.0,127051.0,6301.0
2023-04-13 18:38:40.035570,88359.0,127005.0,6289.0
2023-04-13 18:38:40.045570,88346.0,126976.0,6293.0
2023-04-13 18:38:40.055570,88353.0,126944.0,6304.0
2023-04-13 18:38:40.065570,88336.0,126945.0,6298.0
2023-04-13 18:38:40.075569,88349.0,126970.0,6306.0
2023-04-13 18:38:40.085569,88354.0,127010.0,6272.0
2023-04-13 18:38:40.095569,88365.0,127031.0,6283.0
2023-04-13 18:38:40.105569,88372.0,127042.0,6270.0
2023-04-13 18:38:40.115569,88349.0,127072.0,6277.0
2023-04-13 18:38:40.125569,88381.0,127095.0,6277.0
2023-04-13 18:38:40.134570,88357.0,127123.0,6298.0
2023-04-13 18:38:40.145569,88400.0,127118.0,6329.0
2023-04-13 18:38:40.155569,88406.0,127163.0,6335.0
2023-04-13 18:38:40.165569,88429.0,127174.0,6281.0
2023-04-13 18:38:40.174569,88446.0,127245.0,6305.0
2023-04-13 18:38:40.185569,88464.0,127264.0,6316.0
2023-04-13 18:38:40.195569,88469.0,127306.0,6325.0
2023-04-13 18:38:40.205569,88494.0,127334.0,6333.0
2023-04-13 18:38:40.214569,88494.0,127342.0,6348.0
2023-04-13 18:38:40.225569,88492.0,127358.0,6301.0
2023-04-13 18:38:40.236569,88478.0,127341.0,6337.0
2023-04-13 18:38:40.245570,88466.0,127314.0,6351.0
2023-04-13 18:38:40.254570,88463.0,127292.0,6349.0
2023-04-13 18:38:40.265570,88448.0,127300.0,6333.0
2023-04-13 18:38:40.275570,88441.0,127307.0,6327.0
2023-04-13 18:38:40.285570,88454.0,127309.0,6289.0
2023-04-13 18:38:40.294570,88418.0,127308.0,6339.0
2023-04-13 18:38:40.305570,88413.0,127314.0,6347.0
2023-04-13 18:38:40.315570,88426.0,127336.0,6346.0
2023-04-13 18:38:40.325569,88453.0,127268.0,6352.0
2023-04-13 18:38:40.334570,88461.0,127358.0,6332.0
2023-04-13 18:38:40.345569,88466.0,127347.0,6355.0
2023-04-13 18:38:40.355569,88461.0,127354.0,6353.0
2023-04-13 18:38:40.366569,88470.0,127381.0,6333.0
2023-04-13 18:38:40.374569,88482.0,127388.0,6354.0
2023-04-13 18:38:40.385569,88480.0,127425.0,6343.0
2023-04-13 18:38:40.395569,88495.0,127447.0,6357.0
2023-04-13 18:38:40.406569,88493.0,127438.0,6351.0
2023-04-13 18:38:40.414569,88485.0,127432.0,6359.0
2023-04-13 18:38:40.426570,88502.0,127460.0,6356.0
2023-04-13 18:38:40.435570,88504.0,127467.0,6360.0
2023-04-13 18:38:40.446570,88486.0,127443.0,6355.0
2023-04-13 18:38:40.454569,88500.0,127453.0,6362.0
2023-04-13 18:38:40.465569,88507.0,127486.0,6365.0
2023-04-13 18:38:40.475569,88513.0,127454.0,6365.0
2023-04-13 18:38:40.485569,88521.0,127442.0,6363.0
2023-04-13 18:38:40.495569,88527.0,127379.0,6382.0
2023-04-13 18:38:40.504569,88473.0,127515.0,6366.0
2023-04-13 18:38:40.515569,88470.0,127504.0,6366.0
2023-04-13 18:38:40.527569,88461.0,127475.0,6347.0
2023-04-13 18:38:40.534569,88514.0,127502.0,6389.0
2023-04-13 18:38:40.544569,88495.0,127493.0,6333.0
2023-04-13 18:38:40.555569,88502.0,127490.0,6367.0
2023-04-13 18:38:40.565569,88476.0,127474.0,6354.0
2023-04-13 18:38:40.575569,88501.0,127496.0,6343.0
2023-04-13 18:38:40.584569,88518.0,127481.0,6355.0
2023-04-13 18:38:40.595569,88487.0,127485.0,6364.0
2023-04-13 18:38:40.605569,88479.0,127461.0,6364.0
2023-04-13 18:38:40.615569,88489.0,127449.0,6371.0
2023-04-13 18:38:40.624570,88492.0,127466.0,6363.0
2023-04-13 18:38:40.635569,88494.0,127473.0,6351.0
2023-04-13 18:38:40.645569,88458.0,127455.0,6370.0
2023-04-13 18:38:40.655569,88491.0,127458.0,6351.0
2023-04-13 18:38:40.664569,88480.0,127458.0,6353.0
2023-04-13 18:38:40.675569,88471.0,127442.0,6361.0
2023-04-13 18:38:40.685569,88471.0,127412.0,6345.0
2023-04-13 18:38:40.695569,88450.0,127381.0,6352.0
2023-04-13 18:38:40.704569,88428.0,127316.0,6334.0
2023-04-13 18:38:40.715569,88393.0,127253.0,6314.0
2023-04-13 18:38:40.725569,88361.0,127176.0,6292.0
2023-04-13 18:38:40.735569,88331.0,127105.0,6297.0
2023-04-13 18:38:40.744569,88279.0,127038.0,6285.0
2023-04-13 18:38:40.755569,88256.0,127025.0,6288.0
2023-04-13 18:38:40.765569,88238.0,127010.0,6279.0
2023-04-13 18:38:40.775569,88281.0,127010.0,6278.0
2023-04-13 18:38:40.784570,88263.0,127012.0,6287.0
2023-04-13 18:38:40.795570,88246.0,127034.0,6286.0
2023-04-13 18:38:40.805570,88288.0,126973.0,6282.0
2023-04-13 18:38:40.815570,88282.0,127030.0,6295.0
2023-04-13 18:38:40.825569,88290.0,127071.0,6300.0
2023-04-13 18:38:40.835569,88302.0,127078.0,6316.0
2023-04-13 18:38:40.845569,88267.0,127114.0,6314.0
2023-04-13 18:38:40.854570,88258.0,127165.0,6287.0
2023-04-13 18:38:40.865569,88338.0,127166.0,6309.0
2023-04-13 18:38:40.874570,88349.0,127202.0,6326.0
2023-04-13 18:38:40.885569,88370.0,127226.0,6301.0
2023-04-13 18:38:40.894569,88389.0,127259.0,6320.0
2023-04-13 18:38:40.905569,88408.0,127305.0,6331.0
2023-04-13 18:38:40.914569,88413.0,127335.0,6331.0
2023-04-13 18:38:40.925569,88429.0,127330.0,6336.0
2023-04-13 18:38:40.935569,88425.0,127324.0,6345.0
2023-04-13 18:38:40.945569,88399.0,127272.0,6333.0
2023-04-13 18:38:40.955569,88388.0,127242.0,6327.0
2023-04-13 18:38:40.964570,88374.0,127240.0,6336.0
2023-04-13 18:38:40.973570,88374.0,127244.0,6340.0
2023-04-13 18:38:40.984570,88378.0,127225.0,6322.0
2023-04-13 18:38:40.993570,88364.0,127221.0,6326.0
2023-04-13 18:38:41.004570,88366.0,127203.0,6318.0
2023-04-13 18:38:41.013570,88331.0,127197.0,6337.0
2023-04-13 18:38:41.024570,88345.0,127193.0,6313.0
2023-04-13 18:38:41.033570,88319.0,127195.0,6331.0
2023-04-13 18:38:41.044570,88351.0,127212.0,6321.0
2023-04-13 18:38:41.053570,88320.0,127203.0,6317.0
2023-04-13 18:38:41.064570,88336.0,127219.0,6330.0
2023-04-13 18:38:41.074570,88325.0,127221.0,6334.0
2023-04-13 18:38:41.083570,88329.0,127242.0,6337.0
2023-04-13 18:38:41.093570,88334.0,127254.0,6347.0
2023-04-13 18:38:41.104570,88364.0,127256.0,6335.0
2023-04-13 18:38:41.114570,88312.0,127254.0,6348.0
2023-04-13 18:38:41.123570,88355.0,127267.0,6341.0
2023-04-13 18:38:41.133570,88323.0,127276.0,6343.0
2023-04-13 18:38:41.145570,88396.0,127268.0,6345.0
2023-04-13 18:38:41.155570,88386.0,127297.0,6357.0
2023-04-13 18:38:41.164570,88380.0,127308.0,6321.0
2023-04-13 18:38:41.174570,88385.0,127336.0,6306.0
2023-04-13 18:38:41.185570,88394.0,127309.0,6330.0
2023-04-13 18:38:41.195570,88339.0,127314.0,6347.0
2023-04-13 18:38:41.205570,88373.0,127324.0,6323.0
2023-04-13 18:38:41.214570,88389.0,127318.0,6346.0
2023-04-13 18:38:41.225570,88390.0,127326.0,6349.0
2023-04-13 18:38:41.235570,88388.0,127299.0,6349.0
2023-04-13 18:38:41.244570,88389.0,127353.0,6344.0
2023-04-13 18:38:41.254570,88392.0,127317.0,6346.0
2023-04-13 18:38:41.265570,88389.0,127332.0,6334.0
2023-04-13 18:38:41.274570,88388.0,127338.0,6343.0
2023-04-13 18:38:41.284570,88391.0,127360.0,6336.0
2023-04-13 18:38:41.294570,88369.0,127344.0,6354.0
2023-04-13 18:38:41.305570,88353.0,127334.0,6336.0
2023-04-13 18:38:41.314570,88374.0,127332.0,6327.0
2023-04-13 18:38:41.325569,88371.0,127334.0,6343.0
2023-04-13 18:38:41.334570,88346.0,127338.0,6337.0
2023-04-13 18:38:41.345569,88397.0,127354.0,6335.0
2023-04-13 18:38:41.354570,88369.0,127339.0,6356.0
2023-04-13 18:38:41.365569,88358.0,127367.0,6351.0
2023-04-13 18:38:41.374570,88387.0,127327.0,6351.0
2023-04-13 18:38:41.384570,88403.0,127350.0,6352.0
2023-04-13 18:38:41.395569,88394.0,127340.0,6319.0
2023-04-13 18:38:41.404569,88393.0,127326.0,6336.0
2023-04-13 18:38:41.414569,88376.0,127303.0,6323.0
2023-04-13 18:38:41.424569,88346.0,127251.0,6326.0
2023-04-13 18:38:41.434569,88316.0,127144.0,6303.0
2023-04-13 18:38:41.445569,88270.0,127022.0,6300.0
2023-04-13 18:38:41.454569,88236.0,126966.0,6279.0
2023-04-13 18:38:41.465569,88212.0,126954.0,6270.0
2023-04-13 18:38:41.474569,88194.0,126934.0,6279.0
2023-04-13 18:38:41.485569,88205.0,126943.0,6278.0
2023-04-13 18:38:41.494569,88188.0,126939.0,6276.0
2023-04-13 18:38:41.505570,88201.0,126959.0,6282.0
2023-04-13 18:38:41.514570,88198.0,126965.0,6294.0
2023-04-13 18:38:41.525570,88199.0,126978.0,6289.0
2023-04-13 18:38:41.534570,88222.0,126977.0,6287.0
2023-04-13 18:38:41.544570,88221.0,127033.0,6293.0
2023-04-13 18:38:41.554570,88227.0,126999.0,6294.0
2023-04-13 18:38:41.564570,88235.0,127020.0,6287.0
2023-04-13 18:38:41.575569,88252.0,127061.0,6258.0
2023-04-13 18:38:41.584570,88259.0,127110.0,6273.0
2023-04-13 18:38:41.594570,88268.0,127152.0,6275.0
2023-04-13 18:38:41.604570,88291.0,127197.0,6262.0
2023-04-13 18:38:41.615569,88314.0,127211.0,6280.0
2023-04-13 18:38:41.624570,88324.0,127242.0,6291.0
2023-04-13 18:38:41.634570,88330.0,127256.0,6287.0
2023-04-13 18:38:41.645569,88330.0,127273.0,6311.0
2023-04-13 18:38:41.655569,88339.0,127266.0,6328.0
2023-04-13 18:38:41.664569,88319.0,127261.0,6323.0
2023-04-13 18:38:41.674569,88315.0,127227.0,6320.0
2023-04-13 18:38:41.685570,88300.0,127210.0,6320.0
2023-04-13 18:38:41.695570,88287.0,127195.0,6310.0
2023-04-13 18:38:41.703570,88285.0,127163.0,6300.0
2023-04-13 18:38:41.714569,88279.0,127149.0,6282.0
2023-04-13 18:38:41.724569,88280.0,127147.0,6274.0
2023-04-13 18:38:41.735569,88238.0,127135.0,6307.0
2023-04-13 18:38:41.744569,88231.0,127154.0,6287.0
2023-04-13 18:38:41.754569,88284.0,127130.0,6371.0
2023-04-13 18:38:41.764569,88265.0,127073.0,6303.0
2023-04-13 18:38:41.775569,88271.0,127076.0,6289.0
2023-04-13 18:38:41.784569,88245.0,127071.0,6304.0
2023-04-13 18:38:41.794569,88265.0,127114.0,6304.0
2023-04-13 18:38:41.804569,88267.0,127100.0,6299.0
2023-04-13 18:38:41.815569,88263.0,127097.0,6306.0
2023-04-13 18:38:41.825569,88271.0,127140.0,6304.0
2023-04-13 18:38:41.835569,88256.0,127143.0,6317.0
2023-04-13 18:38:41.844569,88275.0,127142.0,6302.0
2023-04-13 18:38:41.855569,88275.0,127185.0,6308.0
2023-04-13 18:38:41.865569,88289.0,127199.0,6304.0
2023-04-13 18:38:41.874570,88280.0,127213.0,6318.0
2023-04-13 18:38:41.884570,88282.0,127164.0,6316.0
2023-04-13 18:38:41.895569,88289.0,127161.0,6314.0
2023-04-13 18:38:41.905569,88302.0,127163.0,6316.0
2023-04-13 18:38:41.913569,88290.0,127197.0,6276.0
2023-04-13 18:38:41.924569,88297.0,127195.0,6303.0
2023-04-13 18:38:41.936569,88292.0,127207.0,6257.0
2023-04-13 18:38:41.945569,88296.0,127203.0,6312.0
2023-04-13 18:38:41.953569,88284.0,127202.0,6314.0
2023-04-13 18:38:41.964569,88285.0,127212.0,6297.0
2023-04-13 18:38:41.975569,88297.0,127213.0,6321.0
2023-04-13 18:38:41.985569,88298.0,127222.0,6322.0
2023-04-13 18:38:41.993569,88287.0,127219.0,6296.0
2023-04-13 18:38:42.004569,88304.0,127209.0,6297.0
2023-04-13 18:38:42.014569,88299.0,127219.0,6310.0
2023-04-13 18:38:42.024569,88296.0,127216.0,6298.0
2023-04-13 18:38:42.035569,88297.0,127208.0,6302.0
2023-04-13 18:38:42.044570,88301.0,127210.0,6302.0
2023-04-13 18:38:42.055570,88292.0,127188.0,6308.0
2023-04-13 18:38:42.064570,88292.0,127213.0,6318.0
2023-04-13 18:38:42.074570,88298.0,127220.0,6323.0
2023-04-13 18:38:42.084570,88297.0,127236.0,6307.0
2023-04-13 18:38:42.094570,88276.0,127239.0,6303.0
2023-04-13 18:38:42.104570,88293.0,127259.0,6280.0
2023-04-13 18:38:42.114570,88289.0,127242.0,6282.0
2023-04-13 18:38:42.124570,88267.0,127228.0,6309.0
2023-04-13 18:38:42.134570,88269.0,127223.0,6315.0
2023-04-13 18:38:42.145569,88274.0,127215.0,6349.0
2023-04-13 18:38:42.154569,88252.0,127139.0,6313.0
2023-04-13 18:38:42.164569,88218.0,127083.0,6282.0
2023-04-13 18:38:42.174569,88190.0,127031.0,6277.0
2023-04-13 18:38:42.185569,88171.0,126960.0,6270.0
2023-04-13 18:38:42.194569,88150.0,126908.0,6277.0
2023-04-13 18:38:42.204569,88151.0,126902.0,6271.0
2023-04-13 18:38:42.214569,88137.0,126871.0,6257.0
2023-04-13 18:38:42.225570,88131.0,126920.0,6259.0
2023-04-13 18:38:42.234570,88125.0,126892.0,6274.0
2023-04-13 18:38:42.244570,88165.0,126943.0,6276.0
2023-04-13 18:38:42.254570,88142.0,126913.0,6277.0
2023-04-13 18:38:42.264570,88156.0,126977.0,6283.0
2023-04-13 18:38:42.274570,88191.0,126987.0,6279.0
2023-04-13 18:38:42.284570,88167.0,127029.0,6289.0
2023-04-13 18:38:42.294570,88194.0,127050.0,6307.0
2023-04-13 18:38:42.304570,88222.0,127095.0,6302.0
2023-04-13 18:38:42.314570,88234.0,127120.0,6312.0
2023-04-13 18:38:42.325569,88246.0,127143.0,6317.0
2023-04-13 18:38:42.334570,88248.0,127190.0,6318.0
2023-04-13 18:38:42.344570,88258.0,127246.0,6328.0
2023-04-13 18:38:42.354570,88279.0,127253.0,6326.0
2023-04-13 18:38:42.365569,88299.0,127279.0,6333.0
2023-04-13 18:38:42.374570,88286.0,127285.0,6332.0
2023-04-13 18:38:42.384570,88289.0,127281.0,6297.0
2023-04-13 18:38:42.394569,88269.0,127245.0,6317.0
2023-04-13 18:38:42.404569,88262.0,127231.0,6295.0
2023-04-13 18:38:42.414569,88274.0,127215.0,6305.0
2023-04-13 18:38:42.424569,88259.0,127173.0,6320.0
2023-04-13 18:38:42.434569,88245.0,127144.0,6326.0
2023-04-13 18:38:42.444569,88247.0,127147.0,6305.0
2023-04-13 18:38:42.454569,88200.0,127142.0,6311.0
2023-04-13 18:38:42.464569,88202.0,127138.0,6308.0
2023-04-13 18:38:42.474569,88207.0,127147.0,6353.0
2023-04-13 18:38:42.484569,88248.0,127144.0,6301.0
2023-04-13 18:38:42.494569,88246.0,127139.0,6314.0
2023-04-13 18:38:42.504569,88234.0,127158.0,6309.0
2023-04-13 18:38:42.514569,88245.0,127149.0,6309.0
2023-04-13 18:38:42.524569,88235.0,127163.0,6307.0
2023-04-13 18:38:42.534569,88237.0,127191.0,6322.0
2023-04-13 18:38:42.544569,88261.0,127179.0,6309.0
2023-04-13 18:38:42.553569,88255.0,127148.0,6307.0
2023-04-13 18:38:42.564569,88237.0,127158.0,6325.0
2023-04-13 18:38:42.575569,88267.0,127201.0,6313.0
2023-04-13 18:38:42.584570,88268.0,127236.0,6323.0
2023-04-13 18:38:42.594570,88268.0,127213.0,6334.0
2023-04-13 18:38:42.604570,88248.0,127213.0,6323.0
2023-04-13 18:38:42.614570,88237.0,127209.0,6325.0
2023-04-13 18:38:42.624570,88266.0,127227.0,6296.0
2023-04-13 18:38:42.633570,88242.0,127228.0,6303.0
2023-04-13 18:38:42.644569,88276.0,127227.0,6285.0
2023-04-13 18:38:42.654569,88263.0,127234.0,6244.0
2023-04-13 18:38:42.664569,88273.0,127260.0,6325.0
2023-04-13 18:38:42.674569,88282.0,127255.0,6326.0
2023-04-13 18:38:42.684569,88284.0,127247.0,6320.0
2023-04-13 18:38:42.694569,88270.0,127245.0,6309.0
2023-04-13 18:38:42.704569,88273.0,127267.0,6318.0
2023-04-13 18:38:42.714569,88273.0,127270.0,6340.0
2023-04-13 18:38:42.724569,88268.0,127202.0,6316.0
2023-04-13 18:38:42.734569,88268.0,127204.0,6319.0
2023-04-13 18:38:42.744569,88278.0,127264.0,6331.0
2023-04-13 18:38:42.753569,88217.0,127234.0,6309.0
2023-04-13 18:38:42.764570,88263.0,127254.0,6319.0
2023-04-13 18:38:42.774570,88239.0,127246.0,6325.0
2023-04-13 18:38:42.784570,88266.0,127270.0,6331.0
2023-04-13 18:38:42.794570,88292.0,127233.0,6325.0
2023-04-13 18:38:42.804570,88273.0,127251.0,6324.0
2023-04-13 18:38:42.814570,88275.0,127243.0,6320.0
2023-04-13 18:38:42.824570,88278.0,127242.0,6324.0
2023-04-13 18:38:42.834570,88281.0,127194.0,6335.0
2023-04-13 18:38:42.844570,88248.0,127185.0,6307.0
2023-04-13 18:38:42.854570,88247.0,127171.0,6296.0
2023-04-13 18:38:42.864570,88218.0,127079.0,6277.0
2023-04-13 18:38:42.874570,88161.0,127056.0,6289.0
2023-04-13 18:38:42.883570,88137.0,126961.0,6275.0
2023-04-13 18:38:42.894569,88122.0,126916.0,6243.0
2023-04-13 18:38:42.904569,88079.0,126883.0,6270.0
2023-04-13 18:38:42.914569,88093.0,126877.0,6267.0
2023-04-13 18:38:42.923570,88091.0,126859.0,6260.0
2023-04-13 18:38:42.934569,88082.0,126886.0,6262.0
2023-04-13 18:38:42.944569,88082.0,126894.0,6266.0
2023-04-13 18:38:42.953570,88099.0,126927.0,6240.0
2023-04-13 18:38:42.963570,88096.0,126937.0,6273.0
2023-04-13 18:38:42.974569,88124.0,126966.0,6257.0
2023-04-13 18:38:42.984569,88139.0,126991.0,6287.0
2023-04-13 18:38:42.994569,88173.0,127039.0,6296.0
2023-04-13 18:38:43.003569,88172.0,127100.0,6282.0
2023-04-13 18:38:43.014569,88195.0,127103.0,6278.0
2023-04-13 18:38:43.024569,88192.0,127121.0,6306.0
2023-04-13 18:38:43.034569,88215.0,127146.0,6312.0
2023-04-13 18:38:43.044569,88226.0,127168.0,6326.0
2023-04-13 18:38:43.054569,88260.0,127225.0,6308.0
2023-04-13 18:38:43.064569,88262.0,127193.0,6321.0
2023-04-13 18:38:43.075569,88256.0,127242.0,6336.0
2023-04-13 18:38:43.083569,88292.0,127302.0,6340.0
2023-04-13 18:38:43.093569,88280.0,127278.0,6328.0
2023-04-13 18:38:43.104569,88273.0,127273.0,6325.0
2023-04-13 18:38:43.115569,88272.0,127245.0,6314.0
2023-04-13 18:38:43.123570,88269.0,127231.0,6315.0
2023-04-13 18:38:43.133570,88259.0,127210.0,6328.0
2023-04-13 18:38:43.145570,88216.0,127190.0,6313.0
2023-04-13 18:38:43.154570,88199.0,127179.0,6300.0
2023-04-13 18:38:43.163570,88239.0,127170.0,6302.0
2023-04-13 18:38:43.173570,88223.0,127157.0,6268.0
2023-04-13 18:38:43.184570,88239.0,127142.0,6283.0
2023-04-13 18:38:43.194570,88236.0,127148.0,6284.0
2023-04-13 18:38:43.203570,88211.0,127163.0,6315.0
2023-04-13 18:38:43.213570,88226.0,127157.0,6317.0
2023-04-13 18:38:43.224570,88229.0,127194.0,6318.0
2023-04-13 18:38:43.234570,88221.0,127154.0,6315.0
2023-04-13 18:38:43.245570,88235.0,127196.0,6314.0
2023-04-13 18:38:43.253569,88238.0,127206.0,6315.0
2023-04-13 18:38:43.264569,88228.0,127198.0,6310.0
2023-04-13 18:38:43.274569,88206.0,127204.0,6321.0
2023-04-13 18:38:43.284569,88221.0,127220.0,6324.0
2023-04-13 18:38:43.293569,88205.0,127204.0,6319.0
2023-04-13 18:38:43.304570,88245.0,127229.0,6321.0
2023-04-13 18:38:43.314570,88237.0,127227.0,6315.0
2023-04-13 18:38:43.324570,88255.0,127246.0,6319.0
2023-04-13 18:38:43.333570,88253.0,127250.0,6330.0
2023-04-13 18:38:43.346570,88265.0,127273.0,6338.0
2023-04-13 18:38:43.353570,88260.0,127203.0,6326.0
2023-04-13 18:38:43.364570,88237.0,127271.0,6337.0
2023-04-13 18:38:43.373570,88216.0,127259.0,6305.0
2023-04-13 18:38:43.384570,88271.0,127251.0,6333.0
2023-04-13 18:38:43.394569,88274.0,127251.0,6330.0
2023-04-13 18:38:43.404569,88268.0,127259.0,6328.0
2023-04-13 18:38:43.413570,88271.0,127255.0,6335.0
2023-04-13 18:38:43.424569,88260.0,127269.0,6333.0
2023-04-13 18:38:43.434569,88258.0,127251.0,6332.0
2023-04-13 18:38:43.446570,88256.0,127260.0,6328.0
2023-04-13 18:38:43.453570,88267.0,127232.0,6335.0
2023-04-13 18:38:43.464569,88267.0,127268.0,6340.0
2023-04-13 18:38:43.473569,88276.0,127267.0,6319.0
2023-04-13 18:38:43.484570,88265.0,127268.0,6324.0
2023-04-13 18:38:43.493570,88249.0,127264.0,6325.0
2023-04-13 18:38:43.504570,88256.0,127278.0,6318.0
2023-04-13 18:38:43.513570,88259.0,127206.0,6328.0
2023-04-13 18:38:43.524570,88258.0,127239.0,6318.0
2023-04-13 18:38:43.534570,88240.0,127193.0,6324.0
2023-04-13 18:38:43.544570,88214.0,127148.0,6289.0
2023-04-13 18:38:43.553570,88171.0,127048.0,6276.0
2023-04-13 18:38:43.564570,88103.0,126983.0,6277.0
2023-04-13 18:38:43.574570,88066.0,126915.0,6274.0
2023-04-13 18:38:43.583570,88075.0,126874.0,6261.0
2023-04-13 18:38:43.593570,88077.0,126846.0,6253.0
2023-04-13 18:38:43.604570,88076.0,126855.0,6248.0
2023-04-13 18:38:43.614570,88051.0,126837.0,6261.0
2023-04-13 18:38:43.623570,88077.0,126868.0,6255.0
2023-04-13 18:38:43.633570,88086.0,126878.0,6249.0
2023-04-13 18:38:43.644569,88080.0,126926.0,6264.0
2023-04-13 18:38:43.653570,88114.0,126919.0,6277.0
2023-04-13 18:38:43.663570,88118.0,126941.0,6261.0
2023-04-13 18:38:43.673570,88100.0,126965.0,6264.0
2023-04-13 18:38:43.684569,88115.0,127000.0,6279.0
2023-04-13 18:38:43.693570,88107.0,127027.0,6289.0
2023-04-13 18:38:43.703570,88111.0,127033.0,6291.0
2023-04-13 18:38:43.713570,88115.0,127066.0,6293.0
2023-04-13 18:38:43.724569,88163.0,127112.0,6285.0
2023-04-13 18:38:43.734569,88180.0,127148.0,6279.0
2023-04-13 18:38:43.743569,88211.0,127184.0,6301.0
2023-04-13 18:38:43.753569,88224.0,127204.0,6316.0
2023-04-13 18:38:43.764569,88202.0,127231.0,6324.0
2023-04-13 18:38:43.773569,88192.0,127236.0,6325.0
2023-04-13 18:38:43.784569,88222.0,127235.0,6311.0
2023-04-13 18:38:43.793569,88208.0,127202.0,6287.0
2023-04-13 18:38:43.804569,88199.0,127198.0,6310.0
2023-04-13 18:38:43.813569,88153.0,127171.0,6305.0
2023-04-13 18:38:43.824569,88167.0,127138.0,6303.0
2023-04-13 18:38:43.833569,88155.0,127138.0,6303.0
2023-04-13 18:38:43.844570,88166.0,127137.0,6283.0
2023-04-13 18:38:43.853570,88179.0,127141.0,6275.0
2023-04-13 18:38:43.864570,88185.0,127142.0,6296.0
2023-04-13 18:38:43.873570,88172.0,127139.0,6305.0
2023-04-13 18:38:43.883570,88162.0,127150.0,6298.0
2023-04-13 18:38:43.893570,88156.0,127124.0,6303.0
2023-04-13 18:38:43.904569,88196.0,127132.0,6301.0
2023-04-13 18:38:43.913570,88161.0,127138.0,6284.0
2023-04-13 18:38:43.923570,88201.0,127159.0,6304.0
2023-04-13 18:38:43.933570,88203.0,127159.0,6296.0
2023-04-13 18:38:43.944569,88182.0,127181.0,6291.0
2023-04-13 18:38:43.953570,88208.0,127183.0,6306.0
2023-04-13 18:38:43.963570,88207.0,127206.0,6310.0
2023-04-13 18:38:43.973569,88212.0,127225.0,6319.0
2023-04-13 18:38:43.984569,88213.0,127242.0,6311.0
2023-04-13 18:38:43.993569,88182.0,127252.0,6325.0
2023-04-13 18:38:44.003569,88215.0,127278.0,6313.0
2023-04-13 18:38:44.013569,88213.0,127291.0,6330.0
2023-04-13 18:38:44.024570,88196.0,127291.0,6322.0
2023-04-13 18:38:44.034570,88213.0,127302.0,6326.0
2023-04-13 18:38:44.043570,88265.0,127316.0,6318.0
2023-04-13 18:38:44.053570,88263.0,127342.0,6322.0
2023-04-13 18:38:44.064570,88279.0,127363.0,6323.0
2023-04-13 18:38:44.073570,88236.0,127398.0,6331.0
2023-04-13 18:38:44.083570,88256.0,127391.0,6329.0
2023-04-13 18:38:44.093570,88254.0,127390.0,6331.0
2023-04-13 18:38:44.104570,88285.0,127373.0,6337.0
2023-04-13 18:38:44.114570,88272.0,127329.0,6323.0
2023-04-13 18:38:44.123570,88270.0,127346.0,6324.0
2023-04-13 18:38:44.133570,88285.0,127352.0,6326.0
2023-04-13 18:38:44.144569,88274.0,127353.0,6328.0
2023-04-13 18:38:44.153570,88264.0,127338.0,6328.0
2023-04-13 18:38:44.163570,88270.0,127290.0,6322.0
2023-04-13 18:38:44.173570,88259.0,127279.0,6322.0
2023-04-13 18:38:44.184569,88255.0,127316.0,6311.0
2023-04-13 18:38:44.193570,88249.0,127285.0,6320.0
2023-04-13 18:38:44.203570,88247.0,127292.0,6316.0
2023-04-13 18:38:44.213570,88224.0,127246.0,6303.0
2023-04-13 18:38:44.224569,88192.0,127133.0,6293.0
2023-04-13 18:38:44.233569,88165.0,127029.0,6275.0
2023-04-13 18:38:44.243569,88129.0,126998.0,6260.0
2023-04-13 18:38:44.253569,88095.0,126919.0,6258.0
2023-04-13 18:38:44.264569,88087.0,126902.0,6240.0
2023-04-13 18:38:44.273569,88032.0,126914.0,6246.0
2023-04-13 18:38:44.283569,88071.0,126905.0,6214.0
2023-04-13 18:38:44.293569,88073.0,126906.0,6219.0
2023-04-13 18:38:44.303569,88065.0,126900.0,6239.0
2023-04-13 18:38:44.313569,88062.0,126916.0,6218.0
2023-04-13 18:38:44.323569,88077.0,126924.0,6222.0
2023-04-13 18:38:44.333569,88092.0,126933.0,6213.0
2023-04-13 18:38:44.343569,88090.0,126960.0,6227.0
2023-04-13 18:38:44.353569,88107.0,126995.0,6221.0
2023-04-13 18:38:44.364569,88111.0,127036.0,6278.0
2023-04-13 18:38:44.373569,88119.0,127028.0,6284.0
2023-04-13 18:38:44.384570,88132.0,127063.0,6283.0
2023-04-13 18:38:44.393570,88151.0,127054.0,6280.0
2023-04-13 18:38:44.403570,88142.0,127107.0,6278.0
2023-04-13 18:38:44.413570,88160.0,127161.0,6271.0
2023-04-13 18:38:44.423570,88183.0,127177.0,6275.0
2023-04-13 18:38:44.433570,88169.0,127238.0,6305.0
2023-04-13 18:38:44.443570,88156.0,127220.0,6293.0
2023-04-13 18:38:44.453570,88186.0,127217.0,6296.0
2023-04-13 18:38:44.462570,88205.0,127228.0,6281.0
2023-04-13 18:38:44.473569,88205.0,127181.0,6256.0
2023-04-13 18:38:44.483569,88194.0,127155.0,6273.0
2023-04-13 18:38:44.493569,88190.0,127147.0,6255.0
2023-04-13 18:38:44.502570,88170.0,127125.0,6289.0
2023-04-13 18:38:44.513569,88170.0,127115.0,6271.0
2023-04-13 18:38:44.524569,88152.0,127109.0,6275.0
2023-04-13 18:38:44.534569,88155.0,127085.0,6271.0
2023-04-13 18:38:44.542569,88132.0,127076.0,6275.0
2023-04-13 18:38:44.553569,88153.0,127069.0,6240.0
2023-04-13 18:38:44.564570,88153.0,127072.0,6257.0
2023-04-13 18:38:44.574570,88151.0,127022.0,6266.0
2023-04-13 18:38:44.582569,88147.0,127079.0,6253.0
2023-04-13 18:38:44.593569,88154.0,127095.0,6253.0
2023-04-13 18:38:44.603569,88157.0,127099.0,6272.0
2023-04-13 18:38:44.613569,88166.0,127106.0,6270.0
2023-04-13 18:38:44.622569,88168.0,127105.0,6277.0
2023-04-13 18:38:44.633569,88177.0,127112.0,6258.0
2023-04-13 18:38:44.644569,88172.0,127127.0,6284.0
2023-04-13 18:38:44.654569,88177.0,127138.0,6267.0
2023-04-13 18:38:44.663569,88184.0,127153.0,6276.0
2023-04-13 18:38:44.673569,88191.0,127164.0,6293.0
2023-04-13 18:38:44.684569,88193.0,127164.0,6295.0
2023-04-13 18:38:44.693569,88179.0,127175.0,6298.0
2023-04-13 18:38:44.702569,88194.0,127182.0,6303.0
2023-04-13 18:38:44.713569,88213.0,127180.0,6292.0
2023-04-13 18:38:44.723569,88196.0,127189.0,6291.0
2023-04-13 18:38:44.733569,88196.0,127187.0,6273.0
2023-04-13 18:38:44.742570,88197.0,127190.0,6280.0
2023-04-13 18:38:44.755570,88206.0,127181.0,6277.0
2023-04-13 18:38:44.763569,88186.0,127191.0,6299.0
2023-04-13 18:38:44.773569,88200.0,127194.0,6284.0
2023-04-13 18:38:44.783569,88195.0,127192.0,6303.0
2023-04-13 18:38:44.793569,88213.0,127206.0,6277.0
2023-04-13 18:38:44.804569,88201.0,127206.0,6301.0
2023-04-13 18:38:44.813569,88206.0,127201.0,6295.0
2023-04-13 18:38:44.823569,88165.0,127216.0,6301.0
2023-04-13 18:38:44.833569,88173.0,127207.0,6297.0
2023-04-13 18:38:44.842569,88160.0,127214.0,6304.0
2023-04-13 18:38:44.855569,88194.0,127197.0,6292.0
2023-04-13 18:38:44.863569,88178.0,127208.0,6289.0
2023-04-13 18:38:44.873569,88203.0,127194.0,6272.0
2023-04-13 18:38:44.882569,88202.0,127168.0,6278.0
2023-04-13 18:38:44.893569,88179.0,127158.0,6269.0
2023-04-13 18:38:44.903569,88143.0,127086.0,6273.0
2023-04-13 18:38:44.913569,88099.0,127025.0,6236.0
2023-04-13 18:38:44.922570,88078.0,126947.0,6222.0
2023-04-13 18:38:44.933570,88056.0,126893.0,6208.0
2023-04-13 18:38:44.943570,88017.0,126872.0,6250.0
2023-04-13 18:38:44.953570,88007.0,126859.0,6251.0
2023-04-13 18:38:44.962570,87984.0,126837.0,6245.0
2023-04-13 18:38:44.973569,87992.0,126850.0,6245.0
2023-04-13 18:38:44.983569,87979.0,126855.0,6250.0
2023-04-13 18:38:44.992570,88000.0,126865.0,6254.0
2023-04-13 18:38:45.002570,88003.0,126903.0,6257.0
2023-04-13 18:38:45.013569,88020.0,126921.0,6268.0
2023-04-13 18:38:45.023569,88036.0,126924.0,6256.0
2023-04-13 18:38:45.033569,88039.0,126955.0,6266.0
2023-04-13 18:38:45.042570,88045.0,126976.0,6267.0
2023-04-13 18:38:45.053569,88095.0,126995.0,6278.0
2023-04-13 18:38:45.063569,88087.0,127015.0,6267.0
2023-04-13 18:38:45.073569,88125.0,127051.0,6270.0
2023-04-13 18:38:45.083569,88134.0,127087.0,6283.0
2023-04-13 18:38:45.093569,88148.0,127108.0,6282.0
2023-04-13 18:38:45.103570,88154.0,127159.0,6296.0
2023-04-13 18:38:45.113570,88175.0,127194.0,6298.0
2023-04-13 18:38:45.122570,88179.0,127191.0,6259.0
2023-04-13 18:38:45.133570,88193.0,127183.0,6252.0
2023-04-13 18:38:45.143570,88186.0,127154.0,6269.0
2023-04-13 18:38:45.153570,88154.0,127153.0,6289.0
2023-04-13 18:38:45.163570,88151.0,127129.0,6274.0
2023-04-13 18:38:45.173570,88156.0,127113.0,6271.0
2023-04-13 18:38:45.182570,88145.0,127103.0,6249.0
2023-04-13 18:38:45.193570,88153.0,127079.0,6246.0
2023-04-13 18:38:45.202570,88144.0,127079.0,6252.0
2023-04-13 18:38:45.213570,88149.0,127083.0,6241.0
2023-04-13 18:38:45.222570,88141.0,127082.0,6248.0
2023-04-13 18:38:45.233569,88145.0,127113.0,6257.0
2023-04-13 18:38:45.242570,88143.0,127084.0,6269.0
2023-04-13 18:38:45.252570,88155.0,127090.0,6257.0
2023-04-13 18:38:45.263569,88141.0,127086.0,6265.0
2023-04-13 18:38:45.273569,88143.0,127067.0,6284.0
2023-04-13 18:38:45.284570,88158.0,127064.0,6279.0
2023-04-13 18:38:45.292570,88169.0,127084.0,6277.0
2023-04-13 18:38:45.302569,88169.0,127111.0,6274.0
2023-04-13 18:38:45.313569,88177.0,127133.0,6273.0
2023-04-13 18:38:45.323569,88164.0,127146.0,6292.0
2023-04-13 18:38:45.332569,88165.0,127161.0,6250.0
2023-04-13 18:38:45.342569,88180.0,127168.0,6247.0
2023-04-13 18:38:45.353569,88198.0,127184.0,6257.0
2023-04-13 18:38:45.363569,88191.0,127186.0,6250.0
2023-04-13 18:38:45.372569,88183.0,127207.0,6284.0
2023-04-13 18:38:45.382569,88182.0,127189.0,6288.0
2023-04-13 18:38:45.393569,88200.0,127209.0,6258.0
2023-04-13 18:38:45.403569,88204.0,127196.0,6280.0
2023-04-13 18:38:45.412569,88206.0,127221.0,6256.0
2023-04-13 18:38:45.422569,88192.0,127205.0,6297.0
2023-04-13 18:38:45.433569,88212.0,127202.0,6262.0
2023-04-13 18:38:45.443569,88200.0,127222.0,6280.0
2023-04-13 18:38:45.452569,88194.0,127219.0,6257.0
2023-04-13 18:38:45.463570,88199.0,127213.0,6260.0
2023-04-13 18:38:45.473569,88168.0,127211.0,6289.0
2023-04-13 18:38:45.482570,88204.0,127216.0,6269.0
2023-04-13 18:38:45.492570,88204.0,127211.0,6257.0
2023-04-13 18:38:45.502570,88203.0,127197.0,6264.0
2023-04-13 18:38:45.513569,88185.0,127200.0,6245.0
2023-04-13 18:38:45.522570,88194.0,127205.0,6261.0
2023-04-13 18:38:45.533569,88204.0,127205.0,6242.0
2023-04-13 18:38:45.542570,88166.0,127220.0,6275.0
2023-04-13 18:38:45.553569,88169.0,127171.0,6280.0
2023-04-13 18:38:45.562569,88138.0,127137.0,6266.0
2023-04-13 18:38:45.573569,88154.0,127061.0,6235.0
2023-04-13 18:38:45.582569,88136.0,127035.0,6241.0
2023-04-13 18:38:45.592569,88106.0,126961.0,6219.0
2023-04-13 18:38:45.603569,88081.0,126911.0,6229.0
2023-04-13 18:38:45.613569,88066.0,126873.0,6225.0
2023-04-13 18:38:45.623569,88051.0,126856.0,6224.0
2023-04-13 18:38:45.632569,88044.0,126856.0,6212.0
2023-04-13 18:38:45.643570,88025.0,126859.0,6216.0
2023-04-13 18:38:45.653570,88041.0,126871.0,6221.0
2023-04-13 18:38:45.662570,88055.0,126906.0,6184.0
2023-04-13 18:38:45.673570,88062.0,126861.0,6189.0
2023-04-13 18:38:45.682570,88071.0,126931.0,6234.0
2023-04-13 18:38:45.693570,88069.0,126952.0,6240.0
2023-04-13 18:38:45.702570,88095.0,126987.0,6240.0
2023-04-13 18:38:45.713570,88102.0,127007.0,6238.0
2023-04-13 18:38:45.722570,88101.0,127022.0,6242.0
2023-04-13 18:38:45.733569,88111.0,127052.0,6246.0
2023-04-13 18:38:45.742570,88121.0,127071.0,6244.0
2023-04-13 18:38:45.752570,88132.0,127088.0,6248.0
2023-04-13 18:38:45.762570,88126.0,127114.0,6248.0
2023-04-13 18:38:45.773569,88133.0,127144.0,6212.0
2023-04-13 18:38:45.782570,88168.0,127157.0,6241.0
2023-04-13 18:38:45.792570,88177.0,127173.0,6240.0
2023-04-13 18:38:45.802569,88194.0,127184.0,6258.0
2023-04-13 18:38:45.813569,88201.0,127190.0,6263.0
2023-04-13 18:38:45.822569,88198.0,127190.0,6274.0
2023-04-13 18:38:45.831570,88195.0,127180.0,6255.0
2023-04-13 18:38:45.841570,88159.0,127168.0,6262.0
2023-04-13 18:38:45.852569,88178.0,127179.0,6240.0
2023-04-13 18:38:45.862569,88181.0,127174.0,6231.0
2023-04-13 18:38:45.871569,88170.0,127199.0,6268.0
2023-04-13 18:38:45.881569,88182.0,127164.0,6234.0
2023-04-13 18:38:45.892569,88191.0,127176.0,6244.0
2023-04-13 18:38:45.901569,88192.0,127176.0,6262.0
2023-04-13 18:38:45.911569,88207.0,127201.0,6230.0
2023-04-13 18:38:45.921569,88208.0,127192.0,6260.0
2023-04-13 18:38:45.931569,88219.0,127244.0,6252.0
2023-04-13 18:38:45.941569,88232.0,127241.0,6281.0
2023-04-13 18:38:45.951569,88246.0,127276.0,6268.0
2023-04-13 18:38:45.963570,88284.0,127378.0,6317.0
2023-04-13 18:38:45.971569,88381.0,127570.0,6361.0
2023-04-13 18:38:45.982569,88570.0,127895.0,6436.0
2023-04-13 18:38:45.991569,88833.0,128220.0,6531.0
2023-04-13 18:38:46.003569,89064.0,128446.0,6617.0
2023-04-13 18:38:46.012570,89244.0,128609.0,6686.0
2023-04-13 18:38:46.023569,89432.0,128760.0,6727.0
2023-04-13 18:38:46.033569,89551.0,128868.0,6767.0
2023-04-13 18:38:46.042570,89626.0,128921.0,6798.0
2023-04-13 18:38:46.052569,89695.0,128988.0,6812.0
2023-04-13 18:38:46.065570,89739.0,129021.0,6822.0
2023-04-13 18:38:46.073569,89778.0,129035.0,6824.0
2023-04-13 18:38:46.082569,89806.0,129116.0,6829.0
2023-04-13 18:38:46.092569,89826.0,129139.0,6840.0
2023-04-13 18:38:46.103569,89839.0,129164.0,6821.0
2023-04-13 18:38:46.112569,89866.0,129170.0,6827.0
2023-04-13 18:38:46.122569,89879.0,129187.0,6835.0
2023-04-13 18:38:46.132569,89876.0,129196.0,6844.0
2023-04-13 18:38:46.143569,89874.0,129209.0,6835.0
2023-04-13 18:38:46.152569,89859.0,129207.0,6842.0
2023-04-13 18:38:46.162569,89862.0,129235.0,6845.0
2023-04-13 18:38:46.172569,89859.0,129227.0,6835.0
2023-04-13 18:38:46.183570,89910.0,129216.0,6810.0
2023-04-13 18:38:46.192570,89918.0,129233.0,6813.0
2023-04-13 18:38:46.202570,89925.0,129250.0,6855.0
2023-04-13 18:38:46.212570,89945.0,129252.0,6854.0
2023-04-13 18:38:46.222570,89941.0,129256.0,6845.0
2023-04-13 18:38:46.232570,89934.0,129243.0,6837.0
2023-04-13 18:38:46.242570,89908.0,129211.0,6836.0
2023-04-13 18:38:46.252570,89853.0,129145.0,6810.0
2023-04-13 18:38:46.262570,89811.0,129070.0,6796.0
2023-04-13 18:38:46.272570,89752.0,129009.0,6778.0
2023-04-13 18:38:46.283569,89714.0,128944.0,6744.0
2023-04-13 18:38:46.292570,89649.0,128918.0,6761.0
2023-04-13 18:38:46.302569,89676.0,128894.0,6728.0
2023-04-13 18:38:46.312569,89632.0,128902.0,6734.0
2023-04-13 18:38:46.323569,89657.0,128920.0,6720.0
2023-04-13 18:38:46.331569,89665.0,128949.0,6728.0
2023-04-13 18:38:46.342569,89691.0,128974.0,6719.0
2023-04-13 18:38:46.352569,89723.0,128991.0,6759.0
2023-04-13 18:38:46.363570,89760.0,129015.0,6754.0
2023-04-13 18:38:46.371569,89816.0,129055.0,6805.0
2023-04-13 18:38:46.382569,89917.0,129135.0,6842.0
2023-04-13 18:38:46.392569,90052.0,129229.0,6887.0
2023-04-13 18:38:46.403569,90169.0,129341.0,6937.0
2023-04-13 18:38:46.411569,90344.0,129524.0,7017.0
2023-04-13 18:38:46.422569,90500.0,129646.0,7042.0
2023-04-13 18:38:46.432569,90859.0,129943.0,7083.0
2023-04-13 18:38:46.443569,91046.0,130045.0,7099.0
2023-04-13 18:38:46.451569,91152.0,130116.0,7124.0
2023-04-13 18:38:46.462569,91222.0,130178.0,7137.0
2023-04-13 18:38:46.472569,91260.0,130171.0,7147.0
2023-04-13 18:38:46.483569,91282.0,130182.0,7143.0
2023-04-13 18:38:46.492569,91245.0,130152.0,7140.0
2023-04-13 18:38:46.502569,91203.0,130126.0,7117.0
2023-04-13 18:38:46.512569,91141.0,130085.0,7113.0
2023-04-13 18:38:46.522569,91089.0,130025.0,7088.0
2023-04-13 18:38:46.532569,91013.0,129983.0,7062.0
2023-04-13 18:38:46.542570,90967.0,129929.0,7023.0
2023-04-13 18:38:46.552569,90883.0,129889.0,7011.0
2023-04-13 18:38:46.562569,90796.0,129862.0,7036.0
2023-04-13 18:38:46.572569,90731.0,129810.0,7022.0
2023-04-13 18:38:46.582569,90709.0,129755.0,6946.0
2023-04-13 18:38:46.592569,90605.0,129704.0,6973.0
2023-04-13 18:38:46.602569,90569.0,129683.0,6944.0
2023-04-13 18:38:46.612569,90512.0,129641.0,6933.0
2023-04-13 18:38:46.622569,90492.0,129620.0,6893.0
2023-04-13 18:38:46.632569,90463.0,129603.0,6917.0
2023-04-13 18:38:46.642569,90427.0,129578.0,6874.0
2023-04-13 18:38:46.652569,90364.0,129565.0,6915.0
2023-04-13 18:38:46.662569,90340.0,129536.0,6889.0
2023-04-13 18:38:46.672569,90281.0,129526.0,6870.0
2023-04-13 18:38:46.682569,90230.0,129482.0,6881.0
2023-04-13 18:38:46.693569,90222.0,129468.0,6868.0
2023-04-13 18:38:46.702569,90164.0,129446.0,6863.0
2023-04-13 18:38:46.712569,90156.0,129423.0,6863.0
2023-04-13 18:38:46.722570,90117.0,129393.0,6852.0
2023-04-13 18:38:46.732570,90084.0,129386.0,6854.0
2023-04-13 18:38:46.742570,90090.0,129378.0,6805.0
2023-04-13 18:38:46.751570,90067.0,129370.0,6830.0
2023-04-13 18:38:46.762570,90057.0,129353.0,6823.0
2023-04-13 18:38:46.773569,90035.0,129341.0,6816.0
2023-04-13 18:38:46.782570,89970.0,129316.0,6818.0
2023-04-13 18:38:46.791570,89995.0,129309.0,6833.0
2023-04-13 18:38:46.802569,89998.0,129312.0,6799.0
2023-04-13 18:38:46.813569,89982.0,129318.0,6809.0
2023-04-13 18:38:46.822569,89977.0,129311.0,6819.0
2023-04-13 18:38:46.832569,89965.0,129310.0,6819.0
2023-04-13 18:38:46.842569,89959.0,129316.0,6812.0
2023-04-13 18:38:46.852569,89946.0,129301.0,6821.0
2023-04-13 18:38:46.862569,89941.0,129276.0,6807.0
2023-04-13 18:38:46.872569,89935.0,129249.0,6818.0
2023-04-13 18:38:46.882569,89924.0,129271.0,6808.0
2023-04-13 18:38:46.892569,89900.0,129247.0,6801.0
2023-04-13 18:38:46.902570,89852.0,129213.0,6771.0
2023-04-13 18:38:46.912570,89784.0,129117.0,6755.0
2023-04-13 18:38:46.922570,89725.0,128955.0,6725.0
2023-04-13 18:38:46.932570,89633.0,128896.0,6719.0
2023-04-13 18:38:46.942570,89591.0,128835.0,6699.0
2023-04-13 18:38:46.952570,89552.0,128782.0,6696.0
2023-04-13 18:38:46.962570,89521.0,128789.0,6695.0
2023-04-13 18:38:46.972570,89522.0,128769.0,6686.0
2023-04-13 18:38:46.982570,89540.0,128802.0,6685.0
2023-04-13 18:38:46.992570,89530.0,128795.0,6691.0
2023-04-13 18:38:47.001570,89538.0,128834.0,6701.0
2023-04-13 18:38:47.012570,89558.0,128865.0,6700.0
2023-04-13 18:38:47.022570,89562.0,128894.0,6715.0
2023-04-13 18:38:47.033569,89597.0,128913.0,6719.0
2023-04-13 18:38:47.041569,89609.0,128904.0,6719.0
2023-04-13 18:38:47.052569,89625.0,128934.0,6724.0
2023-04-13 18:38:47.062569,89644.0,128974.0,6734.0
2023-04-13 18:38:47.072569,89674.0,129013.0,6745.0
2023-04-13 18:38:47.081570,89730.0,129091.0,6742.0
2023-04-13 18:38:47.092569,89711.0,129122.0,6750.0
2023-04-13 18:38:47.102569,89734.0,129138.0,6763.0
2023-04-13 18:38:47.113569,89754.0,129166.0,6777.0
2023-04-13 18:38:47.121569,89772.0,129176.0,6774.0
2023-04-13 18:38:47.132569,89779.0,129182.0,6771.0
2023-04-13 18:38:47.142569,89783.0,129165.0,6768.0
2023-04-13 18:38:47.153569,89757.0,129124.0,6768.0
2023-04-13 18:38:47.161569,89734.0,129142.0,6747.0
2023-04-13 18:38:47.172569,89703.0,129118.0,6744.0
2023-04-13 18:38:47.182569,89675.0,129139.0,6725.0
2023-04-13 18:38:47.192569,89637.0,129051.0,6721.0
2023-04-13 18:38:47.201569,89620.0,129046.0,6723.0
2023-04-13 18:38:47.212569,89602.0,129033.0,6721.0
2023-04-13 18:38:47.222569,89574.0,129019.0,6697.0
2023-04-13 18:38:47.232569,89540.0,128985.0,6683.0
2023-04-13 18:38:47.242569,89478.0,128937.0,6678.0
2023-04-13 18:38:47.252569,89414.0,128868.0,6637.0
2023-04-13 18:38:47.262570,89375.0,128865.0,6637.0
2023-04-13 18:38:47.273569,89360.0,128831.0,6631.0
2023-04-13 18:38:47.282570,89334.0,128810.0,6612.0
2023-04-13 18:38:47.292570,89297.0,128749.0,6608.0
2023-04-13 18:38:47.302569,89260.0,128717.0,6591.0
2023-04-13 18:38:47.312569,89212.0,128721.0,6584.0
2023-04-13 18:38:47.322569,89178.0,128666.0,6568.0
2023-04-13 18:38:47.331570,89160.0,128616.0,6569.0
2023-04-13 18:38:47.342569,89129.0,128610.0,6538.0
2023-04-13 18:38:47.351570,89101.0,128580.0,6522.0
2023-04-13 18:38:47.362569,89101.0,128573.0,6527.0
2023-04-13 18:38:47.374570,89074.0,128551.0,6530.0
2023-04-13 18:38:47.382569,89045.0,128542.0,6516.0
2023-04-13 18:38:47.392569,89007.0,128465.0,6518.0
2023-04-13 18:38:47.402569,88954.0,128444.0,6499.0
2023-04-13 18:38:47.412569,88906.0,128372.0,6486.0
2023-04-13 18:38:47.421569,88869.0,128331.0,6461.0
2023-04-13 18:38:47.432569,88824.0,128282.0,6455.0
2023-04-13 18:38:47.442570,88820.0,128222.0,6445.0
2023-04-13 18:38:47.451570,88798.0,128184.0,6441.0
2023-04-13 18:38:47.462570,88778.0,128205.0,6385.0
2023-04-13 18:38:47.471570,88750.0,128188.0,6400.0
2023-04-13 18:38:47.482570,88747.0,128184.0,6396.0
2023-04-13 18:38:47.492570,88735.0,128158.0,6399.0
2023-04-13 18:38:47.501570,88716.0,128131.0,6413.0
2023-04-13 18:38:47.511570,88700.0,128106.0,6407.0
2023-04-13 18:38:47.522570,88667.0,128087.0,6387.0
2023-04-13 18:38:47.532570,88664.0,128086.0,6385.0
2023-04-13 18:38:47.541570,88673.0,128069.0,6351.0
2023-04-13 18:38:47.551570,88649.0,128007.0,6353.0
2023-04-13 18:38:47.562569,88623.0,127947.0,6344.0
2023-04-13 18:38:47.572569,88582.0,127863.0,6349.0
2023-04-13 18:38:47.581570,88507.0,127787.0,6355.0
2023-04-13 18:38:47.591570,88490.0,127693.0,6312.0
2023-04-13 18:38:47.602569,88446.0,127620.0,6314.0
2023-04-13 18:38:47.612569,88403.0,127588.0,6301.0
2023-04-13 18:38:47.622570,88419.0,127563.0,6287.0
2023-04-13 18:38:47.631570,88398.0,127548.0,6273.0
2023-04-13 18:38:47.642570,88378.0,127554.0,6322.0
2023-04-13 18:38:47.652570,88393.0,127554.0,6317.0
2023-04-13 18:38:47.661570,88408.0,127616.0,6313.0
2023-04-13 18:38:47.671570,88409.0,127560.0,6319.0
2023-04-13 18:38:47.682570,88427.0,127599.0,6321.0
2023-04-13 18:38:47.692570,88416.0,127652.0,6341.0
2023-04-13 18:38:47.701570,88440.0,127684.0,6326.0
2023-04-13 18:38:47.711570,88454.0,127697.0,6327.0
2023-04-13 18:38:47.722570,88452.0,127729.0,6330.0
2023-04-13 18:38:47.732570,88459.0,127736.0,6342.0
2023-04-13 18:38:47.742570,88478.0,127774.0,6348.0
2023-04-13 18:38:47.751570,88491.0,127793.0,6349.0
2023-04-13 18:38:47.762570,88495.0,127802.0,6353.0
2023-04-13 18:38:47.772570,88505.0,127822.0,6359.0
2023-04-13 18:38:47.782570,88530.0,127884.0,6362.0
2023-04-13 18:38:47.791570,88526.0,127894.0,6358.0
2023-04-13 18:38:47.802569,88521.0,127917.0,6362.0
2023-04-13 18:38:47.812569,88495.0,127868.0,6359.0
2023-04-13 18:38:47.822569,88523.0,127806.0,6348.0
2023-04-13 18:38:47.831570,88507.0,127755.0,6345.0
2023-04-13 18:38:47.842569,88490.0,127715.0,6344.0
2023-04-13 18:38:47.852569,88474.0,127720.0,6326.0
2023-04-13 18:38:47.862569,88456.0,127702.0,6336.0
2023-04-13 18:38:47.871569,88456.0,127685.0,6335.0
2023-04-13 18:38:47.882569,88451.0,127718.0,6332.0
2023-04-13 18:38:47.891569,88452.0,127656.0,6319.0
2023-04-13 18:38:47.902569,88434.0,127684.0,6322.0
2023-04-13 18:38:47.911569,88454.0,127658.0,6324.0
2023-04-13 18:38:47.922569,88443.0,127645.0,6325.0
2023-04-13 18:38:47.931569,88435.0,127636.0,6322.0
2023-04-13 18:38:47.942569,88439.0,127659.0,6336.0
2023-04-13 18:38:47.951569,88441.0,127632.0,6323.0
2023-04-13 18:38:47.962569,88451.0,127670.0,6325.0
2023-04-13 18:38:47.971569,88457.0,127666.0,6337.0
2023-04-13 18:38:47.982570,88442.0,127697.0,6335.0
2023-04-13 18:38:47.992570,88444.0,127727.0,6335.0
2023-04-13 18:38:48.002570,88460.0,127725.0,6337.0
2023-04-13 18:38:48.011570,88446.0,127739.0,6333.0
2023-04-13 18:38:48.021570,88453.0,127742.0,6339.0
2023-04-13 18:38:48.032570,88485.0,127745.0,6320.0
2023-04-13 18:38:48.042570,88471.0,127777.0,6344.0
2023-04-13 18:38:48.051570,88462.0,127740.0,6329.0
2023-04-13 18:38:48.061570,88471.0,127755.0,6305.0
2023-04-13 18:38:48.072569,88468.0,127738.0,6304.0
2023-04-13 18:38:48.081570,88466.0,127750.0,6324.0
2023-04-13 18:38:48.091570,88458.0,127720.0,6336.0
2023-04-13 18:38:48.102569,88452.0,127692.0,6334.0
2023-04-13 18:38:48.112569,88451.0,127692.0,6330.0
2023-04-13 18:38:48.121569,88440.0,127701.0,6318.0
2023-04-13 18:38:48.131569,88435.0,127685.0,6312.0
2023-04-13 18:38:48.142569,88433.0,127716.0,6325.0
2023-04-13 18:38:48.152569,88438.0,127652.0,6329.0
2023-04-13 18:38:48.161569,88439.0,127708.0,6346.0
2023-04-13 18:38:48.171569,88451.0,127707.0,6335.0
2023-04-13 18:38:48.182569,88450.0,127682.0,6332.0
2023-04-13 18:38:48.192569,88446.0,127635.0,6332.0
2023-04-13 18:38:48.201569,88439.0,127660.0,6326.0
2023-04-13 18:38:48.211569,88431.0,127635.0,6315.0
2023-04-13 18:38:48.222569,88401.0,127652.0,6314.0
2023-04-13 18:38:48.232569,88394.0,127575.0,6316.0
2023-04-13 18:38:48.242569,88375.0,127564.0,6308.0
2023-04-13 18:38:48.251569,88348.0,127489.0,6300.0
2023-04-13 18:38:48.261569,88299.0,127404.0,6282.0
2023-04-13 18:38:48.272569,88273.0,127327.0,6251.0
2023-04-13 18:38:48.282569,88260.0,127310.0,6255.0
2023-04-13 18:38:48.291569,88220.0,127247.0,6272.0
2023-04-13 18:38:48.302569,88259.0,127301.0,6269.0
2023-04-13 18:38:48.311569,88252.0,127322.0,6275.0
2023-04-13 18:38:48.322569,88272.0,127350.0,6282.0
2023-04-13 18:38:48.331569,88273.0,127347.0,6285.0
2023-04-13 18:38:48.342569,88297.0,127388.0,6290.0
2023-04-13 18:38:48.352569,88314.0,127390.0,6300.0
2023-04-13 18:38:48.361570,88300.0,127471.0,6267.0
2023-04-13 18:38:48.371569,88351.0,127518.0,6270.0
2023-04-13 18:38:48.381569,88353.0,127544.0,6291.0
2023-04-13 18:38:48.391569,88373.0,127511.0,6283.0
2023-04-13 18:38:48.401569,88384.0,127579.0,6296.0
2023-04-13 18:38:48.411569,88412.0,127617.0,6313.0
2023-04-13 18:38:48.421569,88403.0,127668.0,6317.0
2023-04-13 18:38:48.431569,88425.0,127735.0,6342.0
2023-04-13 18:38:48.441569,88415.0,127763.0,6350.0
2023-04-13 18:38:48.451569,88442.0,127792.0,6358.0
2023-04-13 18:38:48.461569,88453.0,127818.0,6358.0
2023-04-13 18:38:48.471569,88462.0,127831.0,6366.0
2023-04-13 18:38:48.481569,88462.0,127840.0,6365.0
2023-04-13 18:38:48.492569,88495.0,127848.0,6355.0
2023-04-13 18:38:48.501569,88519.0,127818.0,6363.0
2023-04-13 18:38:48.511569,88517.0,127789.0,6369.0
2023-04-13 18:38:48.522570,88505.0,127786.0,6364.0
2023-04-13 18:38:48.532570,88494.0,127758.0,6346.0
2023-04-13 18:38:48.541570,88459.0,127754.0,6348.0
2023-04-13 18:38:48.551570,88464.0,127760.0,6346.0
2023-04-13 18:38:48.561570,88477.0,127759.0,6339.0
2023-04-13 18:38:48.572569,88500.0,127764.0,6346.0
2023-04-13 18:38:48.582569,88478.0,127789.0,6354.0
2023-04-13 18:38:48.591570,88478.0,127809.0,6385.0
2023-04-13 18:38:48.601570,88511.0,127796.0,6344.0
2023-04-13 18:38:48.612569,88518.0,127807.0,6328.0
2023-04-13 18:38:48.620569,88534.0,127800.0,6354.0
2023-04-13 18:38:48.631569,88532.0,127819.0,6336.0
2023-04-13 18:38:48.642569,88534.0,127830.0,6367.0
2023-04-13 18:38:48.651569,88539.0,127825.0,6370.0
2023-04-13 18:38:48.661569,88542.0,127828.0,6373.0
2023-04-13 18:38:48.671569,88548.0,127856.0,6365.0
2023-04-13 18:38:48.683569,88532.0,127849.0,6363.0
2023-04-13 18:38:48.691569,88554.0,127851.0,6370.0
2023-04-13 18:38:48.701570,88537.0,127844.0,6374.0
2023-04-13 18:38:48.711570,88565.0,127831.0,6372.0
2023-04-13 18:38:48.721570,88527.0,127870.0,6377.0
2023-04-13 18:38:48.731570,88541.0,127861.0,6353.0
2023-04-13 18:38:48.741570,88542.0,127863.0,6348.0
2023-04-13 18:38:48.751570,88547.0,127882.0,6354.0
2023-04-13 18:38:48.761570,88522.0,127866.0,6365.0
2023-04-13 18:38:48.772570,88513.0,127840.0,6368.0
2023-04-13 18:38:48.783569,88540.0,127818.0,6348.0
2023-04-13 18:38:48.791569,88530.0,127811.0,6392.0
2023-04-13 18:38:48.801569,88519.0,127778.0,6323.0
2023-04-13 18:38:48.811569,88513.0,127782.0,6327.0
2023-04-13 18:38:48.821569,88518.0,127771.0,6308.0
2023-04-13 18:38:48.831569,88524.0,127765.0,6303.0
2023-04-13 18:38:48.841569,88467.0,127739.0,6344.0
2023-04-13 18:38:48.851569,88478.0,127731.0,6338.0
2023-04-13 18:38:48.861569,88511.0,127735.0,6322.0
2023-04-13 18:38:48.871569,88504.0,127740.0,6302.0
2023-04-13 18:38:48.881569,88516.0,127754.0,6322.0
2023-04-13 18:38:48.891569,88511.0,127728.0,6319.0
2023-04-13 18:38:48.901569,88455.0,127734.0,6342.0
2023-04-13 18:38:48.911569,88479.0,127719.0,6337.0
2023-04-13 18:38:48.920570,88451.0,127674.0,6329.0
2023-04-13 18:38:48.931569,88442.0,127602.0,6298.0
2023-04-13 18:38:48.941569,88406.0,127526.0,6277.0
2023-04-13 18:38:48.951569,88374.0,127468.0,6256.0
2023-04-13 18:38:48.960569,88307.0,127403.0,6282.0
2023-04-13 18:38:48.971569,88286.0,127358.0,6280.0
2023-04-13 18:38:48.981569,88297.0,127329.0,6256.0
2023-04-13 18:38:48.992569,88277.0,127329.0,6252.0
2023-04-13 18:38:49.000569,88287.0,127364.0,6271.0
2023-04-13 18:38:49.011569,88322.0,127387.0,6247.0
2023-04-13 18:38:49.021569,88282.0,127397.0,6279.0
2023-04-13 18:38:49.032569,88327.0,127412.0,6294.0
2023-04-13 18:38:49.040569,88321.0,127427.0,6291.0
2023-04-13 18:38:49.051569,88345.0,127452.0,6279.0
2023-04-13 18:38:49.061570,88335.0,127480.0,6288.0
2023-04-13 18:38:49.072569,88329.0,127508.0,6290.0
2023-04-13 18:38:49.080569,88374.0,127495.0,6286.0
2023-04-13 18:38:49.091569,88389.0,127547.0,6300.0
2023-04-13 18:38:49.101569,88405.0,127589.0,6301.0
2023-04-13 18:38:49.112569,88425.0,127618.0,6316.0
2023-04-13 18:38:49.120569,88442.0,127651.0,6314.0
2023-04-13 18:38:49.131569,88459.0,127700.0,6320.0
2023-04-13 18:38:49.141569,88461.0,127708.0,6326.0
2023-04-13 18:38:49.151569,88456.0,127727.0,6341.0
2023-04-13 18:38:49.160569,88448.0,127722.0,6330.0
2023-04-13 18:38:49.171569,88456.0,127734.0,6339.0
2023-04-13 18:38:49.181569,88425.0,127682.0,6323.0
2023-04-13 18:38:49.191569,88434.0,127648.0,6326.0
2023-04-13 18:38:49.200569,88407.0,127625.0,6319.0
2023-04-13 18:38:49.211569,88424.0,127611.0,6330.0
2023-04-13 18:38:49.221569,88419.0,127597.0,6305.0
2023-04-13 18:38:49.231569,88428.0,127582.0,6320.0
2023-04-13 18:38:49.241570,88430.0,127574.0,6306.0
2023-04-13 18:38:49.250570,88408.0,127557.0,6304.0
2023-04-13 18:38:49.261570,88413.0,127520.0,6303.0
2023-04-13 18:38:49.272570,88399.0,127510.0,6287.0
2023-04-13 18:38:49.282570,88403.0,127504.0,6309.0
2023-04-13 18:38:49.290569,88395.0,127509.0,6302.0
2023-04-13 18:38:49.301569,88374.0,127519.0,6291.0
2023-04-13 18:38:49.311569,88368.0,127508.0,6288.0
2023-04-13 18:38:49.321569,88384.0,127527.0,6295.0
2023-04-13 18:38:49.330569,88360.0,127514.0,6307.0
2023-04-13 18:38:49.341569,88353.0,127533.0,6304.0
2023-04-13 18:38:49.351569,88393.0,127483.0,6297.0
2023-04-13 18:38:49.362569,88393.0,127521.0,6299.0
2023-04-13 18:38:49.370569,88395.0,127512.0,6312.0
2023-04-13 18:38:49.381569,88399.0,127539.0,6303.0
2023-04-13 18:38:49.391569,88412.0,127539.0,6310.0
2023-04-13 18:38:49.401569,88383.0,127573.0,6302.0
2023-04-13 18:38:49.410569,88417.0,127575.0,6300.0
2023-04-13 18:38:49.421569,88426.0,127593.0,6297.0
2023-04-13 18:38:49.431569,88412.0,127598.0,6306.0
2023-04-13 18:38:49.442569,88423.0,127572.0,6317.0
2023-04-13 18:38:49.450569,88420.0,127561.0,6314.0
2023-04-13 18:38:49.460569,88430.0,127558.0,6315.0
2023-04-13 18:38:49.471569,88434.0,127558.0,6297.0
2023-04-13 18:38:49.482569,88434.0,127567.0,6316.0
2023-04-13 18:38:49.491569,88430.0,127574.0,6318.0
2023-04-13 18:38:49.501569,88418.0,127568.0,6319.0
2023-04-13 18:38:49.511569,88430.0,127544.0,6315.0
2023-04-13 18:38:49.521569,88426.0,127537.0,6315.0
2023-04-13 18:38:49.531569,88432.0,127533.0,6308.0
2023-04-13 18:38:49.541569,88419.0,127548.0,6306.0
2023-04-13 18:38:49.551569,88408.0,127538.0,6298.0
2023-04-13 18:38:49.561569,88419.0,127584.0,6311.0
2023-04-13 18:38:49.571569,88417.0,127579.0,6307.0
2023-04-13 18:38:49.581569,88405.0,127556.0,6301.0
2023-04-13 18:38:49.590569,88396.0,127520.0,6305.0
2023-04-13 18:38:49.601570,88396.0,127537.0,6305.0
2023-04-13 18:38:49.611570,88380.0,127489.0,6270.0
2023-04-13 18:38:49.621569,88344.0,127393.0,6279.0
2023-04-13 18:38:49.630570,88309.0,127296.0,6266.0
2023-04-13 18:38:49.640570,88267.0,127249.0,6243.0
2023-04-13 18:38:49.651569,88243.0,127197.0,6212.0
2023-04-13 18:38:49.660570,88220.0,127153.0,6211.0
2023-04-13 18:38:49.671569,88202.0,127128.0,6200.0
2023-04-13 18:38:49.680570,88162.0,127125.0,6205.0
2023-04-13 18:38:49.691569,88171.0,127127.0,6188.0
2023-04-13 18:38:49.701569,88196.0,127144.0,6229.0
2023-04-13 18:38:49.710569,88188.0,127172.0,6228.0
2023-04-13 18:38:49.721569,88184.0,127193.0,6229.0
2023-04-13 18:38:49.731569,88212.0,127229.0,6241.0
2023-04-13 18:38:49.742569,88215.0,127244.0,6242.0
2023-04-13 18:38:49.750569,88230.0,127229.0,6244.0
2023-04-13 18:38:49.760569,88214.0,127246.0,6248.0
2023-04-13 18:38:49.771569,88261.0,127294.0,6231.0
2023-04-13 18:38:49.782570,88266.0,127322.0,6254.0
2023-04-13 18:38:49.790569,88284.0,127367.0,6254.0
2023-04-13 18:38:49.800569,88299.0,127409.0,6250.0
2023-04-13 18:38:49.811569,88312.0,127424.0,6232.0
2023-04-13 18:38:49.821569,88331.0,127458.0,6279.0
2023-04-13 18:38:49.830569,88296.0,127490.0,6268.0
2023-04-13 18:38:49.840569,88328.0,127536.0,6272.0
2023-04-13 18:38:49.851569,88355.0,127533.0,6260.0
2023-04-13 18:38:49.861569,88326.0,127527.0,6294.0
2023-04-13 18:38:49.870569,88316.0,127514.0,6287.0
2023-04-13 18:38:49.880569,88281.0,127478.0,6276.0
2023-04-13 18:38:49.891569,88314.0,127471.0,6271.0
2023-04-13 18:38:49.901569,88323.0,127440.0,6238.0
2023-04-13 18:38:49.910569,88306.0,127410.0,6231.0
2023-04-13 18:38:49.920569,88291.0,127412.0,6249.0
2023-04-13 18:38:49.931569,88299.0,127391.0,6236.0
2023-04-13 18:38:49.940569,88299.0,127382.0,6234.0
2023-04-13 18:38:49.950569,88292.0,127386.0,6236.0
2023-04-13 18:38:49.960569,88294.0,127376.0,6252.0
2023-04-13 18:38:49.971569,88292.0,127393.0,6254.0
2023-04-13 18:38:49.981569,88284.0,127406.0,6281.0
2023-04-13 18:38:49.991569,88291.0,127408.0,6282.0
2023-04-13 18:38:50.000569,88314.0,127446.0,6271.0
2023-04-13 18:38:50.011569,88311.0,127396.0,6282.0
2023-04-13 18:38:50.021569,88312.0,127450.0,6275.0
2023-04-13 18:38:50.031569,88321.0,127475.0,6288.0
2023-04-13 18:38:50.040569,88320.0,127490.0,6278.0
2023-04-13 18:38:50.051569,88316.0,127501.0,6280.0
2023-04-13 18:38:50.061569,88317.0,127527.0,6289.0
2023-04-13 18:38:50.071569,88328.0,127501.0,6309.0
2023-04-13 18:38:50.080569,88339.0,127561.0,6303.0
2023-04-13 18:38:50.092569,88347.0,127577.0,6302.0
2023-04-13 18:38:50.100569,88355.0,127550.0,6295.0
2023-04-13 18:38:50.111569,88302.0,127554.0,6310.0
2023-04-13 18:38:50.120569,88308.0,127554.0,6304.0
2023-04-13 18:38:50.130569,88331.0,127524.0,6294.0
2023-04-13 18:38:50.140570,88341.0,127531.0,6292.0
2023-04-13 18:38:50.151569,88321.0,127516.0,6265.0
2023-04-13 18:38:50.160570,88337.0,127464.0,6298.0
2023-04-13 18:38:50.171569,88332.0,127461.0,6288.0
2023-04-13 18:38:50.181569,88329.0,127464.0,6287.0
2023-04-13 18:38:50.192569,88321.0,127513.0,6303.0
2023-04-13 18:38:50.200569,88326.0,127500.0,6292.0
2023-04-13 18:38:50.211569,88323.0,127509.0,6311.0
2023-04-13 18:38:50.220569,88328.0,127452.0,6307.0
2023-04-13 18:38:50.231569,88334.0,127469.0,6290.0
2023-04-13 18:38:50.241569,88326.0,127461.0,6288.0
2023-04-13 18:38:50.251569,88322.0,127477.0,6292.0
2023-04-13 18:38:50.260569,88328.0,127458.0,6286.0
2023-04-13 18:38:50.271569,88324.0,127496.0,6294.0
2023-04-13 18:38:50.281569,88340.0,127492.0,6306.0
2023-04-13 18:38:50.291569,88344.0,127488.0,6296.0
2023-04-13 18:38:50.300569,88333.0,127508.0,6294.0
2023-04-13 18:38:50.311569,88325.0,127522.0,6300.0
2023-04-13 18:38:50.321570,88311.0,127476.0,6275.0
2023-04-13 18:38:50.331570,88286.0,127417.0,6262.0
2023-04-13 18:38:50.340570,88259.0,127320.0,6256.0
2023-04-13 18:38:50.351570,88221.0,127247.0,6250.0
2023-04-13 18:38:50.361570,88181.0,127190.0,6236.0
2023-04-13 18:38:50.370570,88179.0,127165.0,6233.0
2023-04-13 18:38:50.380570,88168.0,127175.0,6229.0
2023-04-13 18:38:50.391569,88165.0,127140.0,6232.0
2023-04-13 18:38:50.401569,88176.0,127169.0,6239.0
2023-04-13 18:38:50.410570,88161.0,127155.0,6238.0
2023-04-13 18:38:50.420570,88180.0,127193.0,6241.0
2023-04-13 18:38:50.431569,88192.0,127220.0,6258.0
2023-04-13 18:38:50.440570,88207.0,127283.0,6254.0
2023-04-13 18:38:50.450569,88228.0,127337.0,6263.0
2023-04-13 18:38:50.460569,88256.0,127377.0,6272.0
2023-04-13 18:38:50.471569,88284.0,127440.0,6272.0
2023-04-13 18:38:50.480569,88306.0,127498.0,6283.0
2023-04-13 18:38:50.491569,88322.0,127518.0,6283.0
2023-04-13 18:38:50.500569,88363.0,127576.0,6297.0
2023-04-13 18:38:50.511569,88386.0,127685.0,6321.0
2023-04-13 18:38:50.520569,88411.0,127704.0,6324.0
2023-04-13 18:38:50.531569,88455.0,127749.0,6337.0
2023-04-13 18:38:50.540569,88475.0,127772.0,6335.0
2023-04-13 18:38:50.550569,88427.0,127819.0,6320.0
2023-04-13 18:38:50.561569,88463.0,127787.0,6299.0
2023-04-13 18:38:50.570569,88436.0,127757.0,6288.0
2023-04-13 18:38:50.580569,88435.0,127708.0,6280.0
2023-04-13 18:38:50.590569,88416.0,127664.0,6277.0
2023-04-13 18:38:50.600569,88405.0,127632.0,6285.0
2023-04-13 18:38:50.611569,88383.0,127611.0,6307.0
2023-04-13 18:38:50.620569,88378.0,127583.0,6305.0
2023-04-13 18:38:50.631569,88374.0,127551.0,6310.0
2023-04-13 18:38:50.640569,88370.0,127538.0,6290.0
2023-04-13 18:38:50.651569,88358.0,127540.0,6288.0
2023-04-13 18:38:50.660569,88353.0,127534.0,6281.0
2023-04-13 18:38:50.670569,88332.0,127540.0,6281.0
2023-04-13 18:38:50.680570,88352.0,127551.0,6281.0
2023-04-13 18:38:50.690570,88348.0,127568.0,6300.0
2023-04-13 18:38:50.700569,88375.0,127581.0,6292.0
2023-04-13 18:38:50.710569,88363.0,127528.0,6305.0
2023-04-13 18:38:50.720569,88386.0,127522.0,6299.0
2023-04-13 18:38:50.730569,88379.0,127599.0,6272.0
2023-04-13 18:38:50.741569,88395.0,127598.0,6264.0
2023-04-13 18:38:50.750569,88398.0,127610.0,6277.0
2023-04-13 18:38:50.760569,88395.0,127622.0,6261.0
2023-04-13 18:38:50.770569,88392.0,127643.0,6274.0
2023-04-13 18:38:50.781569,88398.0,127634.0,6282.0
2023-04-13 18:38:50.790569,88359.0,127641.0,6289.0
2023-04-13 18:38:50.800569,88404.0,127643.0,6258.0
2023-04-13 18:38:50.811569,88402.0,127657.0,6309.0
2023-04-13 18:38:50.821569,88400.0,127669.0,6307.0
2023-04-13 18:38:50.830569,88397.0,127634.0,6300.0
2023-04-13 18:38:50.840569,88398.0,127616.0,6301.0
2023-04-13 18:38:50.851569,88401.0,127636.0,6290.0
2023-04-13 18:38:50.861570,88405.0,127631.0,6302.0
2023-04-13 18:38:50.869569,88395.0,127618.0,6301.0
2023-04-13 18:38:50.880569,88361.0,127620.0,6305.0
2023-04-13 18:38:50.890569,88363.0,127614.0,6294.0
2023-04-13 18:38:50.901569,88389.0,127612.0,6269.0
2023-04-13 18:38:50.909569,88339.0,127611.0,6302.0
2023-04-13 18:38:50.920569,88372.0,127606.0,6304.0
2023-04-13 18:38:50.930569,88373.0,127606.0,6294.0
2023-04-13 18:38:50.941569,88359.0,127605.0,6308.0
2023-04-13 18:38:50.950569,88349.0,127603.0,6306.0
2023-04-13 18:38:50.960569,88381.0,127610.0,6292.0
2023-04-13 18:38:50.970569,88355.0,127633.0,6306.0
2023-04-13 18:38:50.981569,88363.0,127631.0,6306.0
2023-04-13 18:38:50.990569,88366.0,127633.0,6305.0
2023-04-13 18:38:51.000569,88400.0,127646.0,6295.0
2023-04-13 18:38:51.010569,88443.0,127657.0,6294.0
2023-04-13 18:38:51.021569,88401.0,127622.0,6275.0
2023-04-13 18:38:51.030569,88359.0,127595.0,6310.0
2023-04-13 18:38:51.040570,88325.0,127537.0,6299.0
2023-04-13 18:38:51.050570,88260.0,127419.0,6267.0
2023-04-13 18:38:51.061570,88248.0,127336.0,6266.0
2023-04-13 18:38:51.070570,88225.0,127248.0,6254.0
2023-04-13 18:38:51.079570,88206.0,127233.0,6254.0
2023-04-13 18:38:51.090570,88174.0,127178.0,6204.0
2023-04-13 18:38:51.101570,88156.0,127135.0,6208.0
2023-04-13 18:38:51.110570,88166.0,127142.0,6235.0
2023-04-13 18:38:51.120570,88156.0,127149.0,6246.0
2023-04-13 18:38:51.130570,88165.0,127151.0,6247.0
2023-04-13 18:38:51.140570,88150.0,127129.0,6252.0
2023-04-13 18:38:51.150570,88148.0,127120.0,6236.0
2023-04-13 18:38:51.160570,88123.0,127115.0,6252.0
2023-04-13 18:38:51.170570,88113.0,127125.0,6256.0
2023-04-13 18:38:51.180570,88117.0,127112.0,6249.0
2023-04-13 18:38:51.190570,88120.0,127090.0,6248.0
2023-04-13 18:38:51.200569,88109.0,127097.0,6261.0
2023-04-13 18:38:51.210569,88126.0,127096.0,6275.0
2023-04-13 18:38:51.221570,88076.0,127018.0,6272.0
2023-04-13 18:38:51.230570,88068.0,126987.0,6254.0
2023-04-13 18:38:51.240570,88025.0,126983.0,6258.0
2023-04-13 18:38:51.250570,87993.0,126947.0,6225.0
2023-04-13 18:38:51.260570,87970.0,126904.0,6237.0
2023-04-13 18:38:51.270570,87925.0,126853.0,6257.0
2023-04-13 18:38:51.280570,87895.0,126816.0,6245.0
2023-04-13 18:38:51.290570,87896.0,126764.0,6246.0
2023-04-13 18:38:51.301570,87861.0,126706.0,6252.0
2023-04-13 18:38:51.310570,87838.0,126645.0,6261.0
2023-04-13 18:38:51.320570,87824.0,126562.0,6236.0
2023-04-13 18:38:51.330570,87786.0,126476.0,6208.0
2023-04-13 18:38:51.339570,87743.0,126417.0,6218.0
2023-04-13 18:38:51.350570,87730.0,126308.0,6177.0
2023-04-13 18:38:51.360570,87673.0,126256.0,6176.0
2023-04-13 18:38:51.370570,87666.0,126208.0,6159.0
2023-04-13 18:38:51.379570,87643.0,126160.0,6170.0
2023-04-13 18:38:51.390570,87608.0,126132.0,6172.0
2023-04-13 18:38:51.402570,87599.0,126090.0,6173.0
2023-04-13 18:38:51.410570,87584.0,126037.0,6201.0
2023-04-13 18:38:51.419570,87513.0,126023.0,6208.0
2023-04-13 18:38:51.430570,87478.0,125944.0,6213.0
2023-04-13 18:38:51.440570,87447.0,125864.0,6206.0
2023-04-13 18:38:51.450569,87434.0,125810.0,6199.0
2023-04-13 18:38:51.459570,87404.0,125755.0,6189.0
2023-04-13 18:38:51.470569,87423.0,125739.0,6197.0
2023-04-13 18:38:51.480569,87429.0,125648.0,6191.0
2023-04-13 18:38:51.491569,87427.0,125653.0,6182.0
2023-04-13 18:38:51.500569,87409.0,125664.0,6174.0
2023-04-13 18:38:51.510569,87428.0,125664.0,6191.0
2023-04-13 18:38:51.520569,87421.0,125717.0,6187.0
2023-04-13 18:38:51.531569,87422.0,125722.0,6183.0
2023-04-13 18:38:51.539569,87431.0,125731.0,6178.0
2023-04-13 18:38:51.550569,87412.0,125739.0,6188.0
2023-04-13 18:38:51.560569,87397.0,125753.0,6199.0
2023-04-13 18:38:51.571569,87434.0,125773.0,6200.0
2023-04-13 18:38:51.579569,87439.0,125814.0,6205.0
2023-04-13 18:38:51.589569,87465.0,125833.0,6209.0
2023-04-13 18:38:51.600569,87524.0,125876.0,6222.0
2023-04-13 18:38:51.611569,87596.0,125938.0,6276.0
2023-04-13 18:38:51.619569,87682.0,125950.0,6327.0
2023-04-13 18:38:51.630569,87830.0,126017.0,6413.0
2023-04-13 18:38:51.640569,88009.0,125900.0,6531.0
2023-04-13 18:38:51.651569,88175.0,125631.0,6631.0
2023-04-13 18:38:51.659569,88935.0,125723.0,6783.0
2023-04-13 18:38:51.670569,89431.0,125581.0,6883.0
2023-04-13 18:38:51.680569,89826.0,125362.0,6961.0
2023-04-13 18:38:51.691569,90170.0,125167.0,7042.0
2023-04-13 18:38:51.700569,90464.0,124958.0,7103.0
2023-04-13 18:38:51.710569,90717.0,124768.0,7152.0
2023-04-13 18:38:51.720569,90881.0,124548.0,7180.0
2023-04-13 18:38:51.730569,90902.0,124431.0,7179.0
2023-04-13 18:38:51.740569,90910.0,124246.0,7173.0
2023-04-13 18:38:51.750569,91382.0,124094.0,7300.0
2023-04-13 18:38:51.760570,92091.0,123780.0,7430.0
2023-04-13 18:38:51.770570,92638.0,123438.0,7549.0
2023-04-13 18:38:51.780570,92998.0,123056.0,7593.0
2023-04-13 18:38:51.789570,93198.0,122697.0,7618.0
2023-04-13 18:38:51.800570,93356.0,122414.0,7681.0
2023-04-13 18:38:51.810570,93538.0,122241.0,7711.0
2023-04-13 18:38:51.820570,93761.0,122102.0,7792.0
2023-04-13 18:38:51.829570,94001.0,122022.0,7851.0
2023-04-13 18:38:51.840570,94186.0,122011.0,7883.0
2023-04-13 18:38:51.850570,94379.0,122050.0,7933.0
2023-04-13 18:38:51.860570,94604.0,122102.0,7965.0
2023-04-13 18:38:51.869570,94767.0,122195.0,8014.0
2023-04-13 18:38:51.880570,94964.0,122332.0,8017.0
2023-04-13 18:38:51.889570,95134.0,122524.0,8038.0
2023-04-13 18:38:51.900570,95308.0,122737.0,8066.0
2023-04-13 18:38:51.910570,95487.0,123025.0,8115.0
2023-04-13 18:38:51.919570,95722.0,123413.0,8176.0
2023-04-13 18:38:51.930570,95956.0,123772.0,8209.0
2023-04-13 18:38:51.940570,96221.0,124175.0,8243.0
2023-04-13 18:38:51.950569,96462.0,124527.0,8285.0
2023-04-13 18:38:51.960569,96778.0,124650.0,8318.0
2023-04-13 18:38:51.969570,96982.0,124575.0,8402.0
2023-04-13 18:38:51.980569,97125.0,124439.0,8441.0
2023-04-13 18:38:51.990569,97194.0,124234.0,8497.0
2023-04-13 18:38:52.000569,97172.0,124103.0,8504.0
2023-04-13 18:38:52.009570,97196.0,124169.0,8519.0
2023-04-13 18:38:52.020569,97317.0,124456.0,8550.0
2023-04-13 18:38:52.030569,97225.0,124466.0,8526.0
2023-04-13 18:38:52.040569,97038.0,124405.0,8509.0
2023-04-13 18:38:52.049569,96800.0,124271.0,8456.0
2023-04-13 18:38:52.060569,96563.0,124115.0,8412.0
2023-04-13 18:38:52.070569,96224.0,123963.0,8348.0
2023-04-13 18:38:52.079569,95901.0,123699.0,8296.0
2023-04-13 18:38:52.089569,95542.0,123375.0,8217.0
2023-04-13 18:38:52.100569,95198.0,123077.0,8154.0
2023-04-13 18:38:52.110569,94827.0,122887.0,8128.0
2023-04-13 18:38:52.119570,94500.0,122692.0,8045.0
2023-04-13 18:38:52.129570,94101.0,122438.0,7992.0
2023-04-13 18:38:52.140570,93663.0,122102.0,7908.0
2023-04-13 18:38:52.150570,93247.0,121755.0,7840.0
2023-04-13 18:38:52.160570,92773.0,121372.0,7764.0
2023-04-13 18:38:52.169570,92272.0,120995.0,7667.0
2023-04-13 18:38:52.180570,91648.0,120586.0,7585.0
2023-04-13 18:38:52.190570,90918.0,120149.0,7480.0
2023-04-13 18:38:52.200569,90222.0,119753.0,7344.0
2023-04-13 18:38:52.209570,89344.0,119385.0,7207.0
2023-04-13 18:38:52.220569,88404.0,118974.0,7100.0
2023-04-13 18:38:52.230569,87694.0,118698.0,6970.0
2023-04-13 18:38:52.240569,86774.0,118240.0,6813.0
2023-04-13 18:38:52.249570,85928.0,117768.0,6628.0
2023-04-13 18:38:52.260569,85134.0,117391.0,6468.0
2023-04-13 18:38:52.270569,84507.0,117129.0,6307.0
2023-04-13 18:38:52.280569,84080.0,116937.0,6179.0
2023-04-13 18:38:52.289569,83854.0,117010.0,6054.0
2023-04-13 18:38:52.300570,83715.0,117193.0,5967.0
2023-04-13 18:38:52.310570,83624.0,117355.0,5866.0
2023-04-13 18:38:52.320570,83760.0,117704.0,5807.0
2023-04-13 18:38:52.329570,83849.0,117932.0,5757.0
2023-04-13 18:38:52.339570,84052.0,118218.0,5722.0
2023-04-13 18:38:52.350570,84243.0,118492.0,5693.0
2023-04-13 18:38:52.360570,84369.0,118663.0,5675.0
2023-04-13 18:38:52.369570,84495.0,118840.0,5685.0
2023-04-13 18:38:52.379570,84638.0,118965.0,5695.0
2023-04-13 18:38:52.390570,84761.0,119099.0,5709.0
2023-04-13 18:38:52.400570,84922.0,119315.0,5741.0
2023-04-13 18:38:52.409570,85073.0,119516.0,5763.0
2023-04-13 18:38:52.419570,85142.0,119596.0,5800.0
2023-04-13 18:38:52.430570,85229.0,119706.0,5826.0
2023-04-13 18:38:52.440570,85314.0,119817.0,5859.0
2023-04-13 18:38:52.450569,85415.0,119919.0,5903.0
2023-04-13 18:38:52.459570,85518.0,120048.0,5956.0
2023-04-13 18:38:52.470569,85631.0,120132.0,5991.0
2023-04-13 18:38:52.480569,85751.0,120292.0,6024.0
2023-04-13 18:38:52.490569,85853.0,120448.0,6055.0
2023-04-13 18:38:52.499570,85939.0,120487.0,6083.0
2023-04-13 18:38:52.510569,86025.0,120589.0,6088.0
2023-04-13 18:38:52.520569,86121.0,120699.0,6079.0
2023-04-13 18:38:52.530569,86154.0,120778.0,6082.0
2023-04-13 18:38:52.539569,86214.0,120825.0,6087.0
2023-04-13 18:38:52.549569,86232.0,120818.0,6076.0
2023-04-13 18:38:52.560569,86204.0,120844.0,6045.0
2023-04-13 18:38:52.569569,86234.0,120819.0,6032.0
2023-04-13 18:38:52.579569,86238.0,120801.0,6030.0
2023-04-13 18:38:52.589569,86205.0,120753.0,6033.0
2023-04-13 18:38:52.600569,86217.0,120741.0,6009.0
2023-04-13 18:38:52.610569,86205.0,120671.0,5999.0
2023-04-13 18:38:52.619569,86169.0,120563.0,5984.0
2023-04-13 18:38:52.630569,86160.0,120505.0,5964.0
2023-04-13 18:38:52.639569,86216.0,120534.0,5945.0
2023-04-13 18:38:52.650569,86280.0,120570.0,5937.0
2023-04-13 18:38:52.659570,86327.0,120586.0,5914.0
2023-04-13 18:38:52.669570,86328.0,120462.0,5898.0
2023-04-13 18:38:52.680570,86320.0,120397.0,5884.0
2023-04-13 18:38:52.689570,86328.0,120357.0,5910.0
2023-04-13 18:38:52.700569,86318.0,120337.0,5924.0
2023-04-13 18:38:52.710569,86343.0,120351.0,5940.0
2023-04-13 18:38:52.720569,86345.0,120376.0,5940.0
2023-04-13 18:38:52.729570,86363.0,120423.0,5954.0
2023-04-13 18:38:52.740569,86379.0,120382.0,5947.0
2023-04-13 18:38:52.749570,86398.0,120310.0,5938.0
2023-04-13 18:38:52.760569,86425.0,120216.0,5937.0
2023-04-13 18:38:52.769569,86436.0,120106.0,5948.0
2023-04-13 18:38:52.780569,86473.0,120059.0,5953.0
2023-04-13 18:38:52.789569,86502.0,119971.0,5951.0
2023-04-13 18:38:52.799569,86537.0,119925.0,5952.0
2023-04-13 18:38:52.811570,86564.0,119852.0,5955.0
2023-04-13 18:38:52.820570,86603.0,119784.0,5987.0
2023-04-13 18:38:52.829570,86611.0,119709.0,5953.0
2023-04-13 18:38:52.840570,86641.0,119661.0,5968.0
2023-04-13 18:38:52.849570,86631.0,119590.0,5975.0
2023-04-13 18:38:52.860570,86711.0,119523.0,5975.0
2023-04-13 18:38:52.869570,86722.0,119496.0,5973.0
2023-04-13 18:38:52.879570,86746.0,119414.0,5982.0
2023-04-13 18:38:52.890570,86768.0,119366.0,5977.0
2023-04-13 18:38:52.899570,86791.0,119299.0,5984.0
2023-04-13 18:38:52.911570,86791.0,119240.0,5989.0
2023-04-13 18:38:52.919570,86821.0,119175.0,5989.0
2023-04-13 18:38:52.929570,86823.0,119063.0,5977.0
2023-04-13 18:38:52.939570,86844.0,118998.0,5985.0
2023-04-13 18:38:52.950569,86867.0,118933.0,5981.0
2023-04-13 18:38:52.959570,86889.0,118867.0,5995.0
2023-04-13 18:38:52.969570,86901.0,118788.0,6012.0
2023-04-13 18:38:52.979570,86909.0,118703.0,6033.0
2023-04-13 18:38:52.990569,86931.0,118656.0,6044.0
2023-04-13 18:38:52.999570,86931.0,118585.0,6063.0
2023-04-13 18:38:53.009570,86963.0,118534.0,6049.0
2023-04-13 18:38:53.020570,86985.0,118497.0,6084.0
2023-04-13 18:38:53.030570,86992.0,118431.0,6096.0
2023-04-13 18:38:53.039570,86959.0,118456.0,6104.0
2023-04-13 18:38:53.049570,87008.0,118443.0,6097.0
2023-04-13 18:38:53.059570,87034.0,118453.0,6088.0
2023-04-13 18:38:53.070570,87043.0,118392.0,6118.0
2023-04-13 18:38:53.079570,87069.0,118415.0,6117.0
2023-04-13 18:38:53.089570,87111.0,118407.0,6138.0
2023-04-13 18:38:53.099570,87125.0,118393.0,6133.0
2023-04-13 18:38:53.110570,87155.0,118401.0,6144.0
2023-04-13 18:38:53.119570,87189.0,118431.0,6154.0
2023-04-13 18:38:53.129570,87187.0,118455.0,6161.0
2023-04-13 18:38:53.139570,87203.0,118441.0,6169.0
2023-04-13 18:38:53.150570,87227.0,118405.0,6173.0
2023-04-13 18:38:53.159570,87226.0,118365.0,6174.0
2023-04-13 18:38:53.169570,87259.0,118315.0,6168.0
2023-04-13 18:38:53.179570,87334.0,118281.0,6164.0
2023-04-13 18:38:53.190570,87325.0,118238.0,6184.0
2023-04-13 18:38:53.199570,87391.0,118220.0,6193.0
2023-04-13 18:38:53.209570,87472.0,118199.0,6189.0
2023-04-13 18:38:53.219570,87499.0,118218.0,6230.0
2023-04-13 18:38:53.229570,87591.0,118237.0,6203.0
2023-04-13 18:38:53.240569,87658.0,118277.0,6240.0
2023-04-13 18:38:53.249570,87727.0,118310.0,6255.0
2023-04-13 18:38:53.259570,87785.0,118315.0,6266.0
2023-04-13 18:38:53.270569,87830.0,118337.0,6270.0
2023-04-13 18:38:53.279569,87854.0,118367.0,6284.0
2023-04-13 18:38:53.289569,87878.0,118342.0,6285.0
2023-04-13 18:38:53.299569,87897.0,118321.0,6288.0
2023-04-13 18:38:53.310569,87910.0,118348.0,6306.0
2023-04-13 18:38:53.319569,87935.0,118337.0,6300.0
2023-04-13 18:38:53.329569,88019.0,118432.0,6315.0
2023-04-13 18:38:53.339569,88223.0,118624.0,6330.0
2023-04-13 18:38:53.350569,88344.0,118517.0,6356.0
2023-04-13 18:38:53.359569,88419.0,118513.0,6365.0
2023-04-13 18:38:53.369569,88465.0,118692.0,6378.0
2023-04-13 18:38:53.379570,88527.0,118891.0,6386.0
2023-04-13 18:38:53.389570,88565.0,119083.0,6394.0
2023-04-13 18:38:53.400570,88559.0,119253.0,6377.0
2023-04-13 18:38:53.409570,88562.0,119434.0,6377.0
2023-04-13 18:38:53.419570,88595.0,119649.0,6362.0
2023-04-13 18:38:53.429570,88507.0,119787.0,6394.0
2023-04-13 18:38:53.440570,88391.0,119823.0,6387.0
2023-04-13 18:38:53.449570,87983.0,119596.0,6429.0
2023-04-13 18:38:53.459570,87598.0,119335.0,6510.0
2023-04-13 18:38:53.469570,87474.0,119523.0,6766.0
2023-04-13 18:38:53.480569,88317.0,120566.0,7125.0
2023-04-13 18:38:53.489570,90151.0,121932.0,7464.0
2023-04-13 18:38:53.499570,92002.0,123286.0,7806.0
2023-04-13 18:38:53.509570,93416.0,124602.0,8068.0
2023-04-13 18:38:53.519569,94122.0,125381.0,8183.0
2023-04-13 18:38:53.529569,94770.0,125970.0,8339.0
2023-04-13 18:38:53.539569,95598.0,126497.0,8476.0
2023-04-13 18:38:53.549569,96167.0,126578.0,8607.0
2023-04-13 18:38:53.559569,96671.0,126538.0,8689.0
2023-04-13 18:38:53.569569,97175.0,126420.0,8797.0
2023-04-13 18:38:53.579569,97644.0,126277.0,8875.0
2023-04-13 18:38:53.589569,98121.0,125955.0,8992.0
2023-04-13 18:38:53.599569,99012.0,125549.0,9177.0
2023-04-13 18:38:53.609569,99538.0,124747.0,9287.0
2023-04-13 18:38:53.619569,99604.0,123810.0,9362.0
2023-04-13 18:38:53.629569,99396.0,122765.0,9395.0
2023-04-13 18:38:53.639569,99097.0,121665.0,9408.0
2023-04-13 18:38:53.649569,98653.0,120591.0,9379.0
2023-04-13 18:38:53.659569,98144.0,119662.0,9340.0
2023-04-13 18:38:53.669569,97611.0,118598.0,9305.0
2023-04-13 18:38:53.679569,97041.0,117616.0,9300.0
2023-04-13 18:38:53.689569,96484.0,116579.0,9253.0
2023-04-13 18:38:53.700569,95890.0,115537.0,9219.0
2023-04-13 18:38:53.709569,95288.0,114465.0,9183.0
2023-04-13 18:38:53.719569,94716.0,114083.0,9126.0
2023-04-13 18:38:53.729569,94277.0,113364.0,9085.0
2023-04-13 18:38:53.740569,93927.0,112912.0,9050.0
2023-04-13 18:38:53.749570,93645.0,112534.0,9033.0
2023-04-13 18:38:53.759570,93490.0,112190.0,9029.0
2023-04-13 18:38:53.769569,93443.0,112004.0,9047.0
2023-04-13 18:38:53.780569,93513.0,111910.0,9101.0
2023-04-13 18:38:53.789569,93619.0,111946.0,9172.0
2023-04-13 18:38:53.799569,93775.0,111975.0,9229.0
2023-04-13 18:38:53.809569,93991.0,112176.0,9297.0
2023-04-13 18:38:53.819569,94401.0,112688.0,9370.0
2023-04-13 18:38:53.829569,95173.0,113775.0,9426.0
2023-04-13 18:38:53.838570,96182.0,115237.0,9562.0
2023-04-13 18:38:53.849569,97367.0,116903.0,9696.0
2023-04-13 18:38:53.859569,98672.0,118808.0,9829.0
2023-04-13 18:38:53.869569,100210.0,121142.0,9944.0
2023-04-13 18:38:53.878569,101565.0,123247.0,10099.0
2023-04-13 18:38:53.889569,102761.0,125072.0,10215.0
2023-04-13 18:38:53.899569,103729.0,126663.0,10298.0
2023-04-13 18:38:53.909569,104427.0,128026.0,10392.0
2023-04-13 18:38:53.920570,105021.0,129177.0,10436.0
2023-04-13 18:38:53.929570,105482.0,130121.0,10524.0
2023-04-13 18:38:53.939570,105860.0,130996.0,10485.0
2023-04-13 18:38:53.950569,106122.0,131826.0,10473.0
2023-04-13 18:38:53.959570,106332.0,132062.0,10445.0
2023-04-13 18:38:53.969570,106426.0,132751.0,10414.0
2023-04-13 18:38:53.979570,106396.0,133380.0,10343.0
2023-04-13 18:38:53.990569,106244.0,133887.0,10260.0
2023-04-13 18:38:53.999570,105950.0,134304.0,10146.0
2023-04-13 18:38:54.009570,105456.0,134416.0,10029.0
2023-04-13 18:38:54.021570,104792.0,134312.0,9882.0
2023-04-13 18:38:54.030570,104165.0,134076.0,9790.0
2023-04-13 18:38:54.038570,103587.0,133725.0,9699.0
2023-04-13 18:38:54.049569,103513.0,133035.0,9743.0
2023-04-13 18:38:54.059569,103519.0,132036.0,9778.0
2023-04-13 18:38:54.069569,103335.0,130779.0,9819.0
2023-04-13 18:38:54.078570,103046.0,129718.0,9801.0
2023-04-13 18:38:54.089569,102797.0,128967.0,9797.0
2023-04-13 18:38:54.099570,102558.0,128403.0,9781.0
2023-04-13 18:38:54.109570,102284.0,127707.0,9760.0
2023-04-13 18:38:54.118570,101998.0,126805.0,9765.0
2023-04-13 18:38:54.129570,101610.0,125882.0,9774.0
2023-04-13 18:38:54.139570,101241.0,124913.0,9758.0
2023-04-13 18:38:54.149570,100867.0,124087.0,9775.0
2023-04-13 18:38:54.159570,100505.0,123318.0,9772.0
2023-04-13 18:38:54.169570,100192.0,122761.0,9765.0
2023-04-13 18:38:54.179570,99971.0,122353.0,9773.0
2023-04-13 18:38:54.189570,99855.0,122118.0,9797.0
2023-04-13 18:38:54.199570,99825.0,122050.0,9832.0
2023-04-13 18:38:54.209570,99833.0,122019.0,9868.0
2023-04-13 18:38:54.219570,99701.0,121785.0,9897.0
2023-04-13 18:38:54.229570,99559.0,121573.0,9920.0
2023-04-13 18:38:54.239570,99411.0,121419.0,9944.0
2023-04-13 18:38:54.249570,99313.0,121366.0,9978.0
2023-04-13 18:38:54.259570,99235.0,121335.0,9982.0
2023-04-13 18:38:54.269569,99157.0,121307.0,10002.0
2023-04-13 18:38:54.279569,99143.0,121402.0,10009.0
2023-04-13 18:38:54.288570,99214.0,121671.0,10032.0
2023-04-13 18:38:54.299569,99365.0,121998.0,10034.0
2023-04-13 18:38:54.308570,99500.0,122316.0,10024.0
2023-04-13 18:38:54.319569,99569.0,122573.0,10049.0
2023-04-13 18:38:54.328570,99572.0,122817.0,10051.0
2023-04-13 18:38:54.339569,99676.0,123089.0,10023.0
2023-04-13 18:38:54.349569,99683.0,123331.0,10018.0
2023-04-13 18:38:54.359569,99646.0,123590.0,10009.0
2023-04-13 18:38:54.368569,99563.0,123803.0,9999.0
2023-04-13 18:38:54.379569,99512.0,124108.0,9998.0
2023-04-13 18:38:54.388569,99520.0,124519.0,9970.0
2023-04-13 18:38:54.399569,99520.0,124902.0,9929.0
2023-04-13 18:38:54.409569,99386.0,125060.0,9883.0
2023-04-13 18:38:54.419569,99207.0,125131.0,9823.0
2023-04-13 18:38:54.428569,99008.0,125204.0,9760.0
2023-04-13 18:38:54.439569,98764.0,125176.0,9665.0
2023-04-13 18:38:54.449569,98384.0,125072.0,9600.0
2023-04-13 18:38:54.459570,98008.0,124909.0,9507.0
2023-04-13 18:38:54.468570,97535.0,124632.0,9421.0
2023-04-13 18:38:54.479570,97107.0,124221.0,9324.0
2023-04-13 18:38:54.489570,96553.0,123830.0,9208.0
2023-04-13 18:38:54.499570,95924.0,123483.0,9064.0
2023-04-13 18:38:54.508570,95163.0,122973.0,8894.0
2023-04-13 18:38:54.519569,94357.0,122432.0,8741.0
2023-04-13 18:38:54.529569,93592.0,121845.0,8586.0
2023-04-13 18:38:54.538570,92741.0,121251.0,8413.0
2023-04-13 18:38:54.548570,91834.0,120654.0,8241.0
2023-04-13 18:38:54.559569,90914.0,120040.0,8072.0
2023-04-13 18:38:54.569569,90120.0,119451.0,7941.0
2023-04-13 18:38:54.578570,89391.0,119035.0,7796.0
2023-04-13 18:38:54.588570,88690.0,118653.0,7664.0
2023-04-13 18:38:54.599569,88131.0,118300.0,7524.0
2023-04-13 18:38:54.609569,87627.0,118030.0,7444.0
2023-04-13 18:38:54.618569,87174.0,117783.0,7336.0
2023-04-13 18:38:54.628569,86734.0,117491.0,7233.0
2023-04-13 18:38:54.639570,86335.0,117279.0,7098.0
2023-04-13 18:38:54.649570,85972.0,117075.0,7019.0
2023-04-13 18:38:54.659570,85632.0,116895.0,6960.0
2023-04-13 18:38:54.668570,85324.0,116631.0,6866.0
2023-04-13 18:38:54.678570,85091.0,116350.0,6773.0
2023-04-13 18:38:54.689570,84938.0,116109.0,6687.0
2023-04-13 18:38:54.700569,84817.0,116039.0,6619.0
2023-04-13 18:38:54.708569,84816.0,116021.0,6550.0
2023-04-13 18:38:54.719569,84813.0,116115.0,6491.0
2023-04-13 18:38:54.729569,84827.0,116231.0,6404.0
2023-04-13 18:38:54.739569,84904.0,116429.0,6360.0
2023-04-13 18:38:54.748569,84892.0,116600.0,6289.0
2023-04-13 18:38:54.759569,84932.0,116903.0,6229.0
2023-04-13 18:38:54.769569,85004.0,117179.0,6195.0
2023-04-13 18:38:54.779569,85063.0,117438.0,6142.0
2023-04-13 18:38:54.788569,85237.0,117726.0,6125.0
2023-04-13 18:38:54.799569,85428.0,118091.0,6123.0
2023-04-13 18:38:54.809569,85590.0,118332.0,6113.0
2023-04-13 18:38:54.819569,85786.0,118696.0,6096.0
2023-04-13 18:38:54.828570,85894.0,118899.0,6121.0
2023-04-13 18:38:54.839569,85989.0,119140.0,6145.0
2023-04-13 18:38:54.849569,86117.0,119496.0,6209.0
2023-04-13 18:38:54.859569,86257.0,119819.0,6291.0
2023-04-13 18:38:54.868569,86490.0,120299.0,6385.0
2023-04-13 18:38:54.878569,86837.0,120799.0,6507.0
2023-04-13 18:38:54.889569,87273.0,121411.0,6618.0
2023-04-13 18:38:54.899569,87745.0,122101.0,6738.0
2023-04-13 18:38:54.909569,88100.0,122718.0,6836.0
2023-04-13 18:38:54.918569,88320.0,123250.0,6870.0
2023-04-13 18:38:54.929569,88355.0,123655.0,6852.0
2023-04-13 18:38:54.938569,88148.0,123870.0,6757.0
2023-04-13 18:38:54.949569,87643.0,123668.0,6603.0
2023-04-13 18:38:54.958569,87217.0,123229.0,6434.0
2023-04-13 18:38:54.969569,86946.0,122765.0,6284.0
2023-04-13 18:38:54.978569,86594.0,122104.0,6115.0
2023-04-13 18:38:54.989569,86478.0,121804.0,6054.0
2023-04-13 18:38:54.998570,86561.0,121794.0,6009.0
2023-04-13 18:38:55.009570,86635.0,121735.0,5965.0
2023-04-13 18:38:55.019569,86660.0,121685.0,5974.0
2023-04-13 18:38:55.029569,86671.0,121743.0,5999.0
2023-04-13 18:38:55.038570,86686.0,121921.0,6025.0
2023-04-13 18:38:55.049569,86662.0,121990.0,6062.0
2023-04-13 18:38:55.059569,86649.0,121958.0,6076.0
2023-04-13 18:38:55.069569,86609.0,121787.0,6081.0
2023-04-13 18:38:55.078570,86579.0,121572.0,6069.0
2023-04-13 18:38:55.089569,86566.0,121253.0,6063.0
2023-04-13 18:38:55.098569,86612.0,120993.0,6037.0
2023-04-13 18:38:55.109569,86663.0,120755.0,6040.0
2023-04-13 18:38:55.118569,86701.0,120501.0,6028.0
2023-04-13 18:38:55.130570,86784.0,120297.0,6031.0
2023-04-13 18:38:55.138569,86821.0,120137.0,6030.0
2023-04-13 18:38:55.149569,86878.0,119933.0,6032.0
2023-04-13 18:38:55.159569,86940.0,119708.0,6037.0
2023-04-13 18:38:55.168569,87064.0,119568.0,6063.0
2023-04-13 18:38:55.178570,87300.0,119534.0,6089.0
2023-04-13 18:38:55.189570,87578.0,119552.0,6137.0
2023-04-13 18:38:55.199570,87814.0,119479.0,6157.0
2023-04-13 18:38:55.208570,87991.0,119382.0,6177.0
2023-04-13 18:38:55.218570,88182.0,119326.0,6178.0
2023-04-13 18:38:55.228570,88364.0,119326.0,6179.0
2023-04-13 18:38:55.239570,88437.0,119244.0,6202.0
2023-04-13 18:38:55.248570,88470.0,119114.0,6218.0
2023-04-13 18:38:55.258570,88500.0,119080.0,6215.0
2023-04-13 18:38:55.268570,88502.0,118990.0,6229.0
2023-04-13 18:38:55.279569,88516.0,118930.0,6230.0
2023-04-13 18:38:55.288570,88584.0,118915.0,6228.0
2023-04-13 18:38:55.298570,88649.0,118921.0,6249.0
2023-04-13 18:38:55.308570,88671.0,118934.0,6260.0
2023-04-13 18:38:55.319569,88723.0,118919.0,6269.0
2023-04-13 18:38:55.328570,88753.0,118868.0,6262.0
2023-04-13 18:38:55.338570,88792.0,118837.0,6274.0
2023-04-13 18:38:55.348569,88829.0,118788.0,6267.0
2023-04-13 18:38:55.359570,88856.0,118709.0,6264.0
2023-04-13 18:38:55.368570,88861.0,118652.0,6287.0
2023-04-13 18:38:55.378570,88863.0,118608.0,6317.0
2023-04-13 18:38:55.388570,88898.0,118591.0,6336.0
2023-04-13 18:38:55.398570,88943.0,118586.0,6344.0
2023-04-13 18:38:55.409570,88978.0,118544.0,6345.0
2023-04-13 18:38:55.419570,89012.0,118542.0,6366.0
2023-04-13 18:38:55.428570,89037.0,118522.0,6370.0
2023-04-13 18:38:55.439570,89046.0,118493.0,6355.0
2023-04-13 18:38:55.449570,89050.0,118437.0,6375.0
2023-04-13 18:38:55.458570,89046.0,118370.0,6390.0
2023-04-13 18:38:55.468570,89064.0,118357.0,6380.0
2023-04-13 18:38:55.479570,89047.0,118333.0,6397.0
2023-04-13 18:38:55.489570,89065.0,118294.0,6398.0
2023-04-13 18:38:55.498570,89069.0,118242.0,6421.0
2023-04-13 18:38:55.508570,89072.0,118210.0,6391.0
2023-04-13 18:38:55.518570,89066.0,118157.0,6414.0
2023-04-13 18:38:55.529569,89052.0,118103.0,6391.0
2023-04-13 18:38:55.538570,89023.0,118035.0,6427.0
2023-04-13 18:38:55.548570,88982.0,117936.0,6427.0
2023-04-13 18:38:55.558570,88911.0,117897.0,6436.0
2023-04-13 18:38:55.569569,88893.0,117813.0,6415.0
2023-04-13 18:38:55.578570,88882.0,117777.0,6402.0
2023-04-13 18:38:55.588570,88858.0,117660.0,6435.0
2023-04-13 18:38:55.598569,88839.0,117599.0,6428.0
2023-04-13 18:38:55.609569,88811.0,117544.0,6439.0
2023-04-13 18:38:55.618569,88823.0,117474.0,6428.0
2023-04-13 18:38:55.628569,88839.0,117451.0,6452.0
2023-04-13 18:38:55.638569,88856.0,117457.0,6449.0
2023-04-13 18:38:55.649569,88865.0,117439.0,6457.0
2023-04-13 18:38:55.659569,88882.0,117449.0,6460.0
2023-04-13 18:38:55.668569,88897.0,117447.0,6471.0
2023-04-13 18:38:55.678569,88910.0,117448.0,6461.0
2023-04-13 18:38:55.689569,88908.0,117444.0,6475.0
2023-04-13 18:38:55.699569,88895.0,117428.0,6486.0
2023-04-13 18:38:55.708569,88861.0,117392.0,6486.0
2023-04-13 18:38:55.718570,88749.0,117457.0,6472.0
2023-04-13 18:38:55.729570,88697.0,117615.0,6503.0
2023-04-13 18:38:55.738570,88609.0,117581.0,6483.0
2023-04-13 18:38:55.748570,88547.0,117838.0,6499.0
2023-04-13 18:38:55.758570,88594.0,118154.0,6491.0
2023-04-13 18:38:55.768570,88570.0,118377.0,6472.0
2023-04-13 18:38:55.779569,88565.0,118500.0,6456.0
2023-04-13 18:38:55.787569,88464.0,118520.0,6472.0
2023-04-13 18:38:55.798569,88293.0,118443.0,6473.0
2023-04-13 18:38:55.808569,88127.0,118355.0,6484.0
2023-04-13 18:38:55.819569,87933.0,118214.0,6501.0
2023-04-13 18:38:55.827569,87664.0,118053.0,6598.0
2023-04-13 18:38:55.838569,87611.0,118132.0,6715.0
2023-04-13 18:38:55.848569,87975.0,118111.0,6867.0
2023-04-13 18:38:55.859569,88374.0,118229.0,7006.0
2023-04-13 18:38:55.867569,88849.0,118172.0,7142.0
2023-04-13 18:38:55.878569,89341.0,118156.0,7287.0
2023-04-13 18:38:55.888569,90161.0,118459.0,7521.0
2023-04-13 18:38:55.899570,91593.0,119041.0,7844.0
2023-04-13 18:38:55.909570,93132.0,119779.0,8171.0
2023-04-13 18:38:55.918570,94573.0,120498.0,8459.0
2023-04-13 18:38:55.928570,95965.0,121049.0,8743.0
2023-04-13 18:38:55.939570,97278.0,121406.0,9005.0
2023-04-13 18:38:55.948570,98218.0,121697.0,9185.0
2023-04-13 18:38:55.958570,98993.0,122014.0,9354.0
2023-04-13 18:38:55.968570,99428.0,122169.0,9430.0
2023-04-13 18:38:55.979570,99462.0,121978.0,9445.0
2023-04-13 18:38:55.988570,99215.0,121514.0,9411.0
2023-04-13 18:38:55.998570,98745.0,121001.0,9333.0
2023-04-13 18:38:56.008570,98204.0,120423.0,9242.0
2023-04-13 18:38:56.018570,97728.0,119754.0,9178.0
2023-04-13 18:38:56.028570,97243.0,119052.0,9130.0
2023-04-13 18:38:56.038570,96857.0,118411.0,9073.0
2023-04-13 18:38:56.048570,96494.0,117849.0,8999.0
2023-04-13 18:38:56.058570,96198.0,117361.0,8957.0
2023-04-13 18:38:56.068570,95912.0,116816.0,8933.0
2023-04-13 18:38:56.078570,95630.0,116232.0,8907.0
2023-04-13 18:38:56.088570,95376.0,115651.0,8896.0
2023-04-13 18:38:56.098569,95122.0,115079.0,8911.0
2023-04-13 18:38:56.108569,94846.0,114458.0,8890.0
2023-04-13 18:38:56.117570,94577.0,114445.0,8881.0
2023-04-13 18:38:56.128569,94327.0,113968.0,8870.0
2023-04-13 18:38:56.138569,94579.0,114745.0,8886.0
2023-04-13 18:38:56.148569,94824.0,114563.0,8950.0
2023-04-13 18:38:56.158569,95042.0,114669.0,8981.0
2023-04-13 18:38:56.168569,95201.0,114537.0,9050.0
2023-04-13 18:38:56.178569,95384.0,114543.0,9135.0
2023-04-13 18:38:56.188569,95544.0,114521.0,9152.0
2023-04-13 18:38:56.198569,95685.0,114577.0,9226.0
2023-04-13 18:38:56.208569,95843.0,114711.0,9258.0
2023-04-13 18:38:56.218569,96004.0,114896.0,9256.0
2023-04-13 18:38:56.228569,96169.0,115106.0,9270.0
2023-04-13 18:38:56.239569,96298.0,115328.0,9307.0
2023-04-13 18:38:56.248569,96404.0,115519.0,9328.0
2023-04-13 18:38:56.258570,96472.0,115776.0,9339.0
2023-04-13 18:38:56.268570,96553.0,115967.0,9327.0
2023-04-13 18:38:56.278570,96557.0,116166.0,9335.0
2023-04-13 18:38:56.288570,96577.0,116284.0,9322.0
2023-04-13 18:38:56.298570,96530.0,116327.0,9300.0
2023-04-13 18:38:56.308570,96461.0,116340.0,9309.0
2023-04-13 18:38:56.318570,96402.0,116397.0,9281.0
2023-04-13 18:38:56.328570,96258.0,116208.0,9258.0
2023-04-13 18:38:56.338570,95979.0,115682.0,9239.0
2023-04-13 18:38:56.348569,95604.0,115120.0,9187.0
2023-04-13 18:38:56.358569,95250.0,114573.0,9211.0
2023-04-13 18:38:56.368569,95004.0,114183.0,9203.0
2023-04-13 18:38:56.377570,94862.0,113988.0,9193.0
2023-04-13 18:38:56.388569,94797.0,113844.0,9200.0
2023-04-13 18:38:56.398569,94687.0,113629.0,9186.0
2023-04-13 18:38:56.409569,94457.0,113228.0,9188.0
2023-04-13 18:38:56.417569,94235.0,112873.0,9192.0
2023-04-13 18:38:56.428569,94069.0,112620.0,9200.0
2023-04-13 18:38:56.438570,93913.0,112419.0,9192.0
2023-04-13 18:38:56.449570,93824.0,112240.0,9166.0
2023-04-13 18:38:56.457569,93753.0,112125.0,9178.0
2023-04-13 18:38:56.468569,93714.0,112126.0,9199.0
2023-04-13 18:38:56.478569,93727.0,112181.0,9197.0
2023-04-13 18:38:56.489569,93782.0,112183.0,9194.0
2023-04-13 18:38:56.497569,93726.0,112068.0,9182.0
2023-04-13 18:38:56.508569,93589.0,111864.0,9162.0
2023-04-13 18:38:56.518569,93380.0,111588.0,9137.0
2023-04-13 18:38:56.529569,93249.0,111329.0,9137.0
2023-04-13 18:38:56.539569,93100.0,111081.0,9115.0
2023-04-13 18:38:56.548569,92912.0,110859.0,9135.0
2023-04-13 18:38:56.558569,92782.0,110651.0,9092.0
2023-04-13 18:38:56.569569,92658.0,110502.0,9088.0
2023-04-13 18:38:56.577569,92568.0,110388.0,9070.0
2023-04-13 18:38:56.588569,92449.0,110258.0,9060.0
2023-04-13 18:38:56.598569,92305.0,110094.0,9031.0
2023-04-13 18:38:56.608569,92152.0,109937.0,9003.0
2023-04-13 18:38:56.617570,92078.0,109894.0,8967.0
2023-04-13 18:38:56.627570,92049.0,109976.0,8963.0
2023-04-13 18:38:56.640570,92070.0,110019.0,8925.0
2023-04-13 18:38:56.649570,92062.0,110086.0,8922.0
2023-04-13 18:38:56.659570,92108.0,110182.0,8920.0
2023-04-13 18:38:56.667570,92157.0,110324.0,8908.0
2023-04-13 18:38:56.678569,92184.0,110355.0,8899.0
2023-04-13 18:38:56.688569,92131.0,110302.0,8912.0
2023-04-13 18:38:56.699569,92057.0,110162.0,8876.0
2023-04-13 18:38:56.707569,91976.0,110084.0,8859.0
2023-04-13 18:38:56.718569,91979.0,110179.0,8845.0
2023-04-13 18:38:56.728569,92114.0,110407.0,8812.0
2023-04-13 18:38:56.740569,92274.0,110746.0,8809.0
2023-04-13 18:38:56.747569,92403.0,111084.0,8807.0
2023-04-13 18:38:56.758569,92570.0,111406.0,8743.0
2023-04-13 18:38:56.768569,92693.0,111707.0,8766.0
2023-04-13 18:38:56.778569,92809.0,112032.0,8738.0
2023-04-13 18:38:56.787569,92875.0,112335.0,8695.0
2023-04-13 18:38:56.798570,92859.0,112499.0,8667.0
2023-04-13 18:38:56.808570,92718.0,112619.0,8618.0
2023-04-13 18:38:56.818570,92560.0,112660.0,8550.0
2023-04-13 18:38:56.827570,92368.0,112668.0,8495.0
2023-04-13 18:38:56.838570,92182.0,112606.0,8416.0
2023-04-13 18:38:56.848569,91948.0,112495.0,8435.0
2023-04-13 18:38:56.858569,91717.0,112470.0,8374.0
2023-04-13 18:38:56.867570,91473.0,112474.0,8302.0
2023-04-13 18:38:56.878569,91159.0,112430.0,8239.0
2023-04-13 18:38:56.888569,90819.0,112363.0,8140.0
2023-04-13 18:38:56.898569,90457.0,112270.0,8033.0
2023-04-13 18:38:56.908569,90042.0,112031.0,7924.0
2023-04-13 18:38:56.918569,89622.0,111712.0,7822.0
2023-04-13 18:38:56.928569,89188.0,111348.0,7728.0
2023-04-13 18:38:56.938569,88853.0,111006.0,7638.0
2023-04-13 18:38:56.948569,88487.0,110694.0,7537.0
2023-04-13 18:38:56.958569,88107.0,110442.0,7450.0
2023-04-13 18:38:56.967569,87786.0,110227.0,7362.0
2023-04-13 18:38:56.978570,87515.0,110135.0,7254.0
2023-04-13 18:38:56.988570,87213.0,110186.0,7158.0
