time,ecg,hr,rr,marker
1679064152403160892,-0.14100000000000001
1679064152410857838,-0.135
1679064152418554784,-0.114
1679064152426251730,-0.077
1679064152433948676,-0.083
1679064152441645622,-0.125
1679064152449342568,-0.125
1679064152457039514,-0.10200000000000001
1679064152464736460,-0.121
1679064152472433406,-0.156
1679064152480130352,-0.17300000000000001
1679064152487827298,-0.162
1679064152495524244,-0.123
1679064152503221190,-0.083
1679064152510918136,-0.027
1679064152518615082,0.025
1679064152526312028,0.022
1679064152534008974,0.031
1679064152541705920,0.062
1679064152549402866,0.056
1679064152557099812,0.029
1679064152564796758,0.01
1679064152572493704,-0.008
1679064152580190650,-0.008
1679064152587887596,0.004
1679064152595584542,0.006
1679064152603281488,0.02
1679064152610978434,0.039
1679064152618675380,0.027
1679064152626372326,0.012
1679064152634069272,0.089
1679064152641766218,0.392
1679064152649463164,0.901
1679064152657160110,1.25
1679064152664857056,0.862
1679064152672554002,-0.158
1679064152680250948,-0.63
1679064152687947894,-0.196
1679064152695644840,0.106
1679064152703341786,0.006
1679064152711038732,-0.002
1679064152718735678,0.077
1679064152726432624,0.08700000000000001
1679064152734129570,0.096
1679064152741826516,0.121
1679064152749523462,0.131
1679064152757220408,0.146
1679064152764917354,0.16
1679064152772614300,0.171
1679064152780311246,0.194
1679064152788008192,0.231
1679064152795705138,0.244
1679064152803402084,0.23500000000000001
1679064152811099030,0.25
1679064152818795976,0.28800000000000003
1679064152826492922,0.315
1679064152834189868,0.29
1679064152841886814,0.23500000000000001
1679064152849583760,0.229
1679064152857280706,0.25
1679064152864977652,0.256
1679064152872674598,0.279
1679064152880371544,0.319
1679064152888068490,0.333
1679064152895765436,0.311
1679064152903462382,0.267
1679064152911159328,0.246
1679064152918856274,0.248
1679064152926553220,0.23700000000000002
1679064152934250166,0.215
1679064152941947112,0.169
1679064152949644058,0.10200000000000001
1679064152957341004,0.06
1679064152965037962,0.054,72,891
1679064152972734838,0.043000000000000003
1679064152980431714,0.02
1679064152988128590,0.008
1679064152995825466,0.016
1679064153003522342,0.002
1679064153011219218,-0.064
1679064153018916094,-0.10200000000000001
1679064153026612970,-0.073
1679064153034309846,-0.068
1679064153042006722,-0.08700000000000001
1679064153049703598,-0.062
1679064153057400474,-0.02
1679064153065097350,-0.006
1679064153072794226,-0.004
1679064153080491102,0.004
1679064153088187978,0.02
1679064153095884854,0.033
1679064153103581730,0.037
1679064153111278606,0.05
1679064153118975482,0.066
1679064153126672358,0.06
1679064153134369234,0.045
1679064153142066110,0.037
1679064153149762986,0.02
1679064153157459862,0.01
1679064153165156738,0.016
1679064153172853614,0.022
1679064153180550490,0.027
1679064153188247366,0.014
1679064153195944242,-0.016
1679064153203641118,-0.014
1679064153211337994,0.004
1679064153219034870,-0.016
1679064153226731746,-0.035
1679064153234428622,-0.002
1679064153242125498,0.027
1679064153249822374,0.02
1679064153257519250,0.02
1679064153265216126,0.031
1679064153272913002,0.035
1679064153280609878,0.041
1679064153288306754,0.054
1679064153296003630,0.077
1679064153303700506,0.093
1679064153311397382,0.083
1679064153319094258,0.079
1679064153326791134,0.1
1679064153334488010,0.081
1679064153342184886,0.014
1679064153349881762,-0.031
1679064153357578638,-0.052000000000000005
1679064153365275514,-0.085
1679064153372972390,-0.123
1679064153380669266,-0.14400000000000002
1679064153388366142,-0.162
1679064153396063018,-0.217
1679064153403759894,-0.263
1679064153411456770,-0.244
1679064153419153646,-0.215
1679064153426850522,-0.221
1679064153434547398,-0.217
1679064153442244274,-0.187
1679064153449941150,-0.166
1679064153457638026,-0.14400000000000002
1679064153465334902,-0.10400000000000001
1679064153473031778,-0.083
1679064153480728654,-0.085
1679064153488425530,-0.098
1679064153496122406,-0.121
1679064153503819282,-0.129
1679064153511516158,-0.10400000000000001
1679064153519213034,-0.083
1679064153526909950,-0.077,71
1679064153534606408,-0.058
1679064153542302866,-0.045
1679064153549999324,-0.06
1679064153557695782,-0.05
1679064153565392240,0.129
1679064153573088698,0.578
1679064153580785156,1.114
1679064153588481614,1.208
1679064153596178072,0.44
1679064153603874530,-0.513
1679064153611570988,-0.521
1679064153619267446,-0.052000000000000005
1679064153626963904,-0.041
1679064153634660362,-0.179
1679064153642356820,-0.127
1679064153650053278,-0.096
1679064153657749736,-0.106
1679064153665446194,-0.068
1679064153673142652,-0.052000000000000005
1679064153680839110,-0.058
1679064153688535568,-0.033
1679064153696232026,-0.004
1679064153703928484,0.006
1679064153711624942,0.033
1679064153719321400,0.066
1679064153727017858,0.07
1679064153734714316,0.079
1679064153742410774,0.121
1679064153750107232,0.162
1679064153757803690,0.183
1679064153765500148,0.202,,936
1679064153773196606,0.223
1679064153780893064,0.248
1679064153788589522,0.269
1679064153796285980,0.28800000000000003
1679064153803982438,0.317
1679064153811678896,0.34600000000000003
1679064153819375354,0.34600000000000003
1679064153827071812,0.342
1679064153834768270,0.336
1679064153842464728,0.279
1679064153850161186,0.217
1679064153857857644,0.20400000000000001
1679064153865554102,0.183
1679064153873250560,0.135
1679064153880947018,0.08700000000000001
1679064153888643476,0.027
1679064153896339934,-0.016
1679064153904036392,-0.031
1679064153911732850,-0.05
1679064153919429308,-0.058
1679064153927125766,-0.029
1679064153934822224,-0.006
1679064153942518682,-0.002
1679064153950215140,0.014
1679064153957911598,0.031
1679064153965608056,0.035
1679064153973304514,0.045
1679064153981000972,0.075
1679064153988697430,0.10400000000000001
1679064153996393888,0.11
1679064154004090346,0.098
1679064154011786804,0.10400000000000001
1679064154019483262,0.131
1679064154027179720,0.137
1679064154034876178,0.135
1679064154042572636,0.146
1679064154050269094,0.152
1679064154057965552,0.146
1679064154065662010,0.146
1679064154073358468,0.162
1679064154081054926,0.179
1679064154088751416,0.17500000000000002
1679064154096448292,0.162
1679064154104145168,0.169
1679064154111842044,0.185
1679064154119538920,0.179
1679064154127235796,0.133
1679064154134932672,0.062
1679064154142629548,-0.006
1679064154150326424,-0.081
1679064154158023300,-0.125
1679064154165720176,-0.11
1679064154173417052,-0.098
1679064154181113928,-0.116
1679064154188810804,-0.125
1679064154196507680,-0.108
1679064154204204556,-0.093
1679064154211901432,-0.08700000000000001
1679064154219598308,-0.068
1679064154227295184,-0.045
1679064154234992060,-0.043000000000000003
1679064154242688936,-0.045
1679064154250385812,-0.025
1679064154258082688,0.002
1679064154265779564,0.008
1679064154273476440,0.004
1679064154281173316,0.0
1679064154288870192,-0.016
1679064154296567068,-0.045
1679064154304263944,-0.081
1679064154311960820,-0.10400000000000001
1679064154319657696,-0.112
1679064154327354572,-0.129
1679064154335051448,-0.15
1679064154342748324,-0.17500000000000002
1679064154350445200,-0.233
1679064154358142076,-0.281
1679064154365838952,-0.277
1679064154373535828,-0.28500000000000003
1679064154381232704,-0.323
1679064154388929580,-0.317
1679064154396626456,-0.258
1679064154404323332,-0.231
1679064154412020208,-0.25
1679064154419717084,-0.267
1679064154427413960,-0.265
1679064154435110836,-0.254
1679064154442807712,-0.233
1679064154450504588,-0.221
1679064154458201464,-0.215
1679064154465898340,-0.198
1679064154473595216,-0.179
1679064154481292092,-0.177
1679064154488988968,-0.198
1679064154496685844,-0.075
1679064154504382720,0.404
1679064154512079596,0.978
1679064154519776472,1.1
1679064154527473348,0.40700000000000003
1679064154535170224,-0.542
1679064154542867100,-0.596
1679064154550563976,-0.083
1679064154558260852,-0.006
1679064154565957728,-0.129
1679064154573654604,-0.037
1679064154581351480,0.035
1679064154589048356,0.018000000000000002
1679064154596745232,0.039
1679064154604442108,0.064
1679064154612138984,0.075
1679064154619835860,0.085
1679064154627532736,0.05
1679064154635229612,0.014
1679064154642926488,0.052000000000000005
1679064154650623400,0.077,71
1679064154658319858,0.064
1679064154666016316,0.085
1679064154673712774,0.129
1679064154681409232,0.158
1679064154689105690,0.171
1679064154696802148,0.17300000000000001
1679064154704498606,0.192
1679064154712195064,0.20800000000000002
1679064154719891522,0.181
1679064154727587980,0.156
1679064154735284438,0.185
1679064154742980896,0.20400000000000001,,974
1679064154750677354,0.194
1679064154758373812,0.20600000000000002
1679064154766070270,0.242
1679064154773766728,0.265
1679064154781463186,0.26
1679064154789159644,0.23700000000000002
1679064154796856102,0.221
1679064154804552560,0.20800000000000002
1679064154812249018,0.162
1679064154819945476,0.106
1679064154827641934,0.093
1679064154835338392,0.096
1679064154843034850,0.05
1679064154850731308,-0.018000000000000002
1679064154858427766,-0.068
1679064154866124224,-0.085
1679064154873820682,-0.1
1679064154881517140,-0.125
1679064154889213598,-0.181
1679064154896910056,-0.221
1679064154904606514,-0.123
1679064154912302972,-0.129
1679064154919999430,-0.23700000000000002
1679064154927695888,-0.068
1679064154935392346,0.1
1679064154943088804,0.016
1679064154950785262,0.002
1679064154958481720,0.077
1679064154966178178,0.056
1679064154973874636,-0.014
1679064154981571094,-0.14100000000000001
1679064154989267552,-0.34600000000000003
1679064154996964010,-0.43
1679064155004660468,-0.342
1679064155012356926,-0.298
1679064155020053384,-0.323
1679064155027749842,-0.298
1679064155035446300,-0.24
1679064155043142758,-0.219
1679064155050839216,-0.20800000000000002
1679064155058535674,-0.181
1679064155066232132,-0.158
1679064155073928590,-0.15
1679064155081625048,-0.137
1679064155089321506,-0.108
1679064155097017964,-0.093
1679064155104714422,-0.11
1679064155112410880,-0.14100000000000001
1679064155120107338,-0.17500000000000002
1679064155127803796,-0.187
1679064155135500254,-0.177
1679064155143196712,-0.171
1679064155150893170,-0.164
1679064155158589628,-0.158
1679064155166286086,-0.158
1679064155173982544,-0.146
1679064155181679002,-0.112
1679064155189375460,-0.085
1679064155197071918,-0.08700000000000001
1679064155204768376,-0.098
1679064155212464866,-0.081
1679064155220161742,-0.054
1679064155227858618,-0.045
1679064155235555494,-0.039
1679064155243252370,-0.014
1679064155250949246,-0.012
1679064155258646122,-0.056
1679064155266342998,-0.093
1679064155274039874,-0.10400000000000001
1679064155281736750,-0.14400000000000002
1679064155289433626,-0.212
1679064155297130502,-0.252
1679064155304827378,-0.26
1679064155312524254,-0.258
1679064155320221130,-0.256
1679064155327918006,-0.246
1679064155335614882,-0.227
1679064155343311758,-0.225
1679064155351008634,-0.244
1679064155358705510,-0.302
1679064155366402386,-0.304
1679064155374099262,0.006
1679064155381796138,0.559
1679064155389493014,0.8300000000000001
1679064155397189890,0.28300000000000003
1679064155404886766,-0.715
1679064155412583642,-0.974
1679064155420280518,-0.49
1679064155427977394,-0.265
1679064155435674270,-0.352
1679064155443371146,-0.325
1679064155451068022,-0.244
1679064155458764898,-0.227
1679064155466461774,-0.21
1679064155474158650,-0.17500000000000002
1679064155481855526,-0.156
1679064155489552402,-0.135
1679064155497249278,-0.106
1679064155504946154,-0.085
1679064155512643030,-0.052000000000000005
1679064155520339906,-0.014
1679064155528036782,-0.006
1679064155535733658,-0.002
1679064155543430534,0.039
1679064155551127410,0.098
1679064155558824286,0.158
1679064155566521162,0.242
1679064155574218038,0.317
1679064155581914914,0.271
1679064155589611790,0.162
1679064155597308666,0.166
1679064155605005542,0.225
1679064155612702418,0.202
1679064155620399294,0.164
1679064155628096170,0.181
1679064155635793046,0.20400000000000001
1679064155643489922,0.212
1679064155651186798,0.223
1679064155658883674,0.221,,920
1679064155666580550,0.189
1679064155674277426,0.14400000000000002
1679064155681974302,0.1
1679064155689671178,0.068
1679064155697368054,0.05
1679064155705064930,0.035
1679064155712761806,0.012
1679064155720458682,0.01
1679064155728155558,0.037
1679064155735852434,0.054
1679064155743549310,0.058
1679064155751246186,0.077
1679064155758943062,0.096
1679064155766639938,0.096
1679064155774336850,0.10200000000000001,70
1679064155782033726,0.131
1679064155789730602,0.162
1679064155797427478,0.164
1679064155805124354,0.156
1679064155812821230,0.169
1679064155820518106,0.183
1679064155828214982,0.152
1679064155835911858,0.123
1679064155843608734,0.16
1679064155851305610,0.196
1679064155859002486,0.15
1679064155866699362,0.06
1679064155874396238,0.012
1679064155882093114,0.02
1679064155889789990,0.016
1679064155897486866,0.018000000000000002
1679064155905183742,0.064
1679064155912880618,0.089
1679064155920577494,0.058
1679064155928274370,0.043000000000000003
1679064155935971246,0.06
1679064155943668122,0.048
1679064155951364998,0.012
1679064155959061874,0.02
1679064155966758750,0.056
1679064155974455626,0.06
1679064155982152502,0.039
1679064155989849378,0.031
1679064155997546254,0.025
1679064156005243130,0.016
1679064156012940006,0.022
1679064156020636882,0.037
1679064156028333758,0.029
1679064156036030634,0.008
1679064156043727510,-0.006
1679064156051424386,-0.008
1679064156059121262,0.002
1679064156066818138,0.01
1679064156074515014,0.006
1679064156082211890,0.006
1679064156089908766,0.008
1679064156097605642,0.006
1679064156105302518,0.008
1679064156112999394,0.035
1679064156120696270,0.07
1679064156128393146,0.064
1679064156136090022,0.031
1679064156143786898,0.012
1679064156151483774,0.01
1679064156159180650,0.014
1679064156166877526,0.014
1679064156174574402,0.0
1679064156182271278,-0.022
1679064156189968154,-0.048
1679064156197665030,-0.073
1679064156205361906,-0.106
1679064156213058782,-0.081
1679064156220755658,0.169
1679064156228452534,0.6930000000000001
1679064156236149410,1.135
1679064156243846286,0.839
1679064156251543162,-0.198
1679064156259240038,-0.753
1679064156266936914,-0.34400000000000003
1679064156274633790,-0.039
1679064156282330666,-0.183
1679064156290027542,-0.185
1679064156297724418,-0.064
1679064156305421294,-0.083
1679064156313118170,-0.123
1679064156320815046,-0.08700000000000001
1679064156328511922,-0.06
1679064156336208832,-0.056
1679064156343905290,-0.058
1679064156351601748,-0.085
1679064156359298206,-0.129
1679064156366994664,-0.17500000000000002
1679064156374691122,-0.20400000000000001
1679064156382387580,-0.181
1679064156390084038,-0.146
1679064156397780496,-0.17500000000000002
1679064156405476954,-0.227
1679064156413173412,-0.221
1679064156420869870,-0.187
1679064156428566328,-0.169
1679064156436262786,-0.137
1679064156443959244,-0.085
1679064156451655702,-0.052000000000000005
1679064156459352160,-0.035
1679064156467048618,0.006
1679064156474745076,0.073
1679064156482441534,0.137
1679064156490137992,0.177
1679064156497834450,0.181
1679064156505530908,0.16
1679064156513227366,0.123
1679064156520923824,0.052000000000000005
1679064156528620282,-0.006
1679064156536316740,-0.012
1679064156544013198,-0.006
1679064156551709656,-0.004
1679064156559406114,0.035
1679064156567102572,0.1
1679064156574799030,0.146
1679064156582495488,0.158
1679064156590191946,0.146,,928
1679064156597888404,0.125
1679064156605584862,0.11
1679064156613281320,0.121
1679064156620977778,0.156
1679064156628674236,0.187
1679064156636370694,0.198
1679064156644067152,0.215
1679064156651763610,0.256
1679064156659460068,0.28800000000000003
1679064156667156526,0.292
1679064156674852984,0.298
1679064156682549442,0.313
1679064156690245900,0.319
1679064156697942358,0.315
1679064156705638816,0.317
1679064156713335274,0.333
1679064156721031732,0.34600000000000003
1679064156728728190,0.336
1679064156736424648,0.323
1679064156744121106,0.338
1679064156751817564,0.35000000000000003
1679064156759514022,0.342
1679064156767210480,0.333
1679064156774906938,0.336
1679064156782603396,0.333
1679064156790299854,0.325
1679064156797996312,0.327
1679064156805692770,0.34400000000000003
1679064156813389228,0.354
1679064156821085686,0.336
1679064156828782144,0.325
1679064156836478602,0.325
1679064156844175060,0.292
1679064156851871518,0.246
1679064156859567976,0.244
1679064156867264434,0.229
1679064156874960892,0.148
1679064156882657350,0.075
1679064156890353808,0.083
1679064156898050302,0.11,69
1679064156905747178,0.098
1679064156913444054,0.079
1679064156921140930,0.083
1679064156928837806,0.10400000000000001
1679064156936534682,0.127
1679064156944231558,0.139
1679064156951928434,0.131
1679064156959625310,0.11
1679064156967322186,0.058
1679064156975019062,-0.031
1679064156982715938,-0.07
1679064156990412814,-0.05
1679064156998109690,-0.056
1679064157005806566,-0.089
1679064157013503442,-0.085
1679064157021200318,-0.062
1679064157028897194,-0.062
1679064157036594070,-0.07
1679064157044290946,-0.039
1679064157051987822,0.148
1679064157059684698,0.599
1679064157067381574,1.106
1679064157075078450,1.062
1679064157082775326,0.162
1679064157090472202,-0.655
1679064157098169078,-0.459
1679064157105865954,-0.031
1679064157113562830,-0.125
1679064157121259706,-0.242
1679064157128956582,-0.169
1679064157136653458,-0.183
1679064157144350334,-0.23700000000000002
1679064157152047210,-0.217
1679064157159744086,-0.187
1679064157167440962,-0.177
1679064157175137838,-0.16
1679064157182834714,-0.152
1679064157190531590,-0.15
1679064157198228466,-0.127
1679064157205925342,-0.10200000000000001
1679064157213622218,-0.091
1679064157221319094,-0.066
1679064157229015970,-0.035
1679064157236712846,-0.031
1679064157244409722,-0.027
1679064157252106598,0.01
1679064157259803474,0.054
1679064157267500350,0.081
1679064157275197226,0.10200000000000001
1679064157282894102,0.123
1679064157290590978,0.14400000000000002
1679064157298287854,0.164
1679064157305984730,0.179
1679064157313681606,0.202
1679064157321378482,0.225
1679064157329075358,0.20800000000000002
1679064157336772234,0.16
1679064157344469110,0.129
1679064157352165986,0.112
1679064157359862862,0.068
1679064157367559738,0.0
1679064157375256614,-0.098
1679064157382953490,-0.202
1679064157390650366,-0.233
1679064157398347242,-0.21
1679064157406044118,-0.189
1679064157413740994,-0.183
1679064157421437870,-0.187
1679064157429134746,-0.177
1679064157436831622,-0.133
1679064157444528498,-0.089
1679064157452225374,-0.075
1679064157459922286,-0.064,69
1679064157467619162,-0.045
1679064157475316038,-0.027
1679064157483012914,-0.012
1679064157490709790,0.012
1679064157498406666,0.039
1679064157506103542,0.05
1679064157513800418,0.043000000000000003
1679064157521497294,0.05,,932
1679064157529194170,0.075
1679064157536891046,0.058
1679064157544587922,0.008
1679064157552284798,-0.004
1679064157559981674,0.008
1679064157567678550,-0.004
1679064157575375426,-0.029
1679064157583072302,-0.048
1679064157590769178,-0.052000000000000005
1679064157598466054,-0.056
1679064157606162930,-0.07
1679064157613859806,-0.064
1679064157621556682,-0.041
1679064157629253558,-0.033
1679064157636950434,-0.022
1679064157644647310,0.014
1679064157652344186,0.039
1679064157660041062,0.025
1679064157667737938,0.025
1679064157675434814,0.058
1679064157683131690,0.089
1679064157690828566,0.083
1679064157698525442,0.054
1679064157706222318,0.016
1679064157713919194,-0.029
1679064157721616070,-0.041
1679064157729312946,-0.012
1679064157737009822,0.014
1679064157744706698,0.01
1679064157752403574,-0.008
1679064157760100450,0.012
1679064157767797326,0.07
1679064157775494202,0.108
1679064157783191078,0.112
1679064157790887954,0.154
1679064157798584830,0.258
1679064157806281706,0.329
1679064157813978582,0.315
1679064157821675458,0.281
1679064157829372334,0.231
1679064157837069210,0.146
1679064157844766086,0.11
1679064157852462962,0.133
1679064157860159838,0.148
1679064157867856714,0.181
1679064157875553590,0.323
1679064157883250466,0.653
1679064157890947342,1.11
1679064157898644218,1.196
1679064157906341094,0.402
1679064157914037970,-0.647
1679064157921734846,-0.93
1679064157929431722,-0.645
1679064157937128598,-0.459
1679064157944825474,-0.455
1679064157952522350,-0.43
1679064157960219226,-0.365
1679064157967916102,-0.304
1679064157975612978,-0.066
1679064157983309854,0.26
1679064157991006730,0.298
1679064157998703606,0.212
1679064158006400482,0.242
1679064158014097358,0.219
1679064158021794270,0.196
1679064158029490728,0.273
1679064158037187186,0.29
1679064158044883644,0.221
1679064158052580102,0.166
1679064158060276560,0.093
1679064158067973018,0.012
1679064158075669476,-0.033
1679064158083365934,-0.062
1679064158091062392,-0.062
1679064158098758850,-0.041
1679064158106455308,-0.056
1679064158114151766,-0.058
1679064158121848224,0.0
1679064158129544682,0.029
1679064158137241140,0.014
1679064158144937598,0.025
1679064158152634056,0.05
1679064158160330514,0.035
1679064158168026972,0.0
1679064158175723430,-0.02
1679064158183419888,-0.033
1679064158191116346,-0.062
1679064158198812804,-0.112
1679064158206509262,-0.164
1679064158214205720,-0.187
1679064158221902178,-0.185
1679064158229598636,-0.194
1679064158237295094,-0.187
1679064158244991552,-0.14100000000000001
1679064158252688010,-0.116
1679064158260384468,-0.133
1679064158268080926,-0.123
1679064158275777384,-0.083
1679064158283473842,-0.058
1679064158291170300,-0.058
1679064158298866758,-0.07
1679064158306563216,-0.066
1679064158314259674,-0.041
1679064158321956132,-0.031
1679064158329652590,-0.025
1679064158337349048,-0.002
1679064158345045506,0.008
1679064158352741964,0.0
1679064158360438422,0.018000000000000002
1679064158368134880,0.039
1679064158375831338,0.018000000000000002
1679064158383527796,-0.029
1679064158391224254,-0.064,,871
1679064158398920712,-0.054
1679064158406617170,-0.031
1679064158414313628,-0.031
1679064158422010086,-0.006
1679064158429706544,0.018000000000000002
1679064158437403002,0.01
1679064158445099460,0.006
1679064158452795918,0.035
1679064158460492376,0.058
1679064158468188834,0.058
1679064158475885292,0.058
1679064158483581750,0.062
1679064158491278208,0.075
1679064158498974666,0.1
1679064158506671124,0.11800000000000001
1679064158514367582,0.15
1679064158522064040,0.181
1679064158529760498,0.162
1679064158537456956,0.162
1679064158545153414,0.225
1679064158552849872,0.258
1679064158560546330,0.26
1679064158568242788,0.256
1679064158575939246,0.242
1679064158583635736,0.23700000000000002,69
1679064158591332612,0.21
1679064158599029488,0.171
1679064158606726364,0.181
1679064158614423240,0.194
1679064158622120116,0.164
1679064158629816992,0.156
1679064158637513868,0.183
1679064158645210744,0.169
1679064158652907620,0.10200000000000001
1679064158660604496,0.077
1679064158668301372,0.215
1679064158675998248,0.626
1679064158683695124,1.1520000000000001
1679064158691392000,1.244
1679064158699088876,0.463
1679064158706785752,-0.461
1679064158714482628,-0.43
1679064158722179504,0.062
1679064158729876380,0.125
1679064158737573256,0.033
1679064158745270132,0.093
1679064158752967008,0.106
1679064158760663884,0.035
1679064158768360760,0.025
1679064158776057636,0.054
1679064158783754512,0.054
1679064158791451388,0.045
1679064158799148264,0.035
1679064158806845140,0.025
1679064158814542016,0.029
1679064158822238892,0.048
1679064158829935768,0.064
1679064158837632644,0.081
1679064158845329520,0.098
1679064158853026396,0.10200000000000001
1679064158860723272,0.093
1679064158868420148,0.11800000000000001
1679064158876117024,0.166
1679064158883813900,0.164
1679064158891510776,0.106
1679064158899207652,0.083
1679064158906904528,0.1
1679064158914601404,0.083
1679064158922298280,0.054
1679064158929995156,0.052000000000000005
1679064158937692032,0.033
1679064158945388908,-0.008
1679064158953085784,-0.027
1679064158960782660,-0.033
1679064158968479536,-0.06
1679064158976176412,-0.11
1679064158983873288,-0.162
1679064158991570164,-0.20800000000000002
1679064158999267040,-0.23700000000000002
1679064159006963916,-0.256
1679064159014660792,-0.273
1679064159022357668,-0.265
1679064159030054544,-0.254
1679064159037751420,-0.281
1679064159045448296,-0.275
1679064159053145172,-0.219
1679064159060842048,-0.221
1679064159068538924,-0.254
1679064159076235800,-0.25
1679064159083932676,-0.231
1679064159091629552,-0.21
1679064159099326428,-0.187
1679064159107023304,-0.171
1679064159114720180,-0.146
1679064159122417056,-0.121
1679064159130113932,-0.121
1679064159137810808,-0.116
1679064159145507720,-0.081
1679064159153204596,-0.052000000000000005
1679064159160901472,-0.037
1679064159168598348,-0.029
1679064159176295224,-0.035
1679064159183992100,-0.056
1679064159191688976,-0.10200000000000001
1679064159199385852,-0.133
1679064159207082728,-0.112
1679064159214779604,-0.106
1679064159222476480,-0.139
1679064159230173356,-0.14400000000000002
1679064159237870232,-0.10200000000000001
1679064159245567108,-0.054,,849
1679064159253263984,-0.027
1679064159260960860,-0.016
1679064159268657736,-0.012
1679064159276354612,0.002
1679064159284051488,0.022
1679064159291748364,0.018000000000000002
1679064159299445240,-0.002
1679064159307142116,-0.027
1679064159314838992,-0.054
1679064159322535868,-0.048
1679064159330232744,-0.014
1679064159337929620,-0.006
1679064159345626496,0.0
1679064159353323372,0.022
1679064159361020248,0.029
1679064159368717124,0.025
1679064159376414000,0.035
1679064159384110876,0.043000000000000003
1679064159391807752,0.006
1679064159399504628,-0.048
1679064159407201504,-0.043000000000000003
1679064159414898380,0.0
1679064159422595256,0.022
1679064159430292132,0.0
1679064159437989008,-0.027
1679064159445685884,-0.012
1679064159453382760,0.002
1679064159461079636,-0.008
1679064159468776512,0.004
1679064159476473388,0.043000000000000003
1679064159484170264,0.064
1679064159491867140,0.058
1679064159499564016,0.058
1679064159507260892,0.181
1679064159514957768,0.557
1679064159522654644,1.085
1679064159530351520,1.304
1679064159538048396,0.6950000000000001
1679064159545745272,-0.311
1679064159553442148,-0.484
1679064159561139024,0.018000000000000002
1679064159568835900,0.133
1679064159576532776,-0.022
1679064159584229652,0.02
1679064159591926528,0.083
1679064159599623404,0.033
1679064159607320280,0.012
1679064159615017156,0.039
1679064159622714032,0.056
1679064159630410908,0.062
1679064159638107784,0.058
1679064159645804660,0.052000000000000005
1679064159653501536,0.068
1679064159661198412,0.098
1679064159668895288,0.114
1679064159676592164,0.123
1679064159684289040,0.135
1679064159691985916,0.152
1679064159699682792,0.166
1679064159707379704,0.183,69
1679064159715076580,0.212
1679064159722773456,0.223
1679064159730470332,0.179
1679064159738167208,0.146
1679064159745864084,0.177
1679064159753560960,0.202
1679064159761257836,0.17500000000000002
1679064159768954712,0.14400000000000002
1679064159776651588,0.129
1679064159784348464,0.1
1679064159792045340,0.056
1679064159799742216,0.006
1679064159807439092,-0.037
1679064159815135968,-0.083
1679064159822832844,-0.152
1679064159830529720,-0.202
1679064159838226596,-0.212
1679064159845923472,-0.23700000000000002
1679064159853620348,-0.273
1679064159861317224,-0.28300000000000003
1679064159869014100,-0.28300000000000003
1679064159876710976,-0.28500000000000003
1679064159884407852,-0.273
1679064159892104728,-0.292
1679064159899801604,-0.34400000000000003
1679064159907498480,-0.35000000000000003
1679064159915195356,-0.321
1679064159922892232,-0.308
1679064159930589108,-0.292
1679064159938285984,-0.26
1679064159945982860,-0.23500000000000001
1679064159953679736,-0.215
1679064159961376612,-0.20400000000000001
1679064159969073488,-0.189
1679064159976770364,-0.164
1679064159984467240,-0.137
1679064159992164116,-0.116
1679064159999860992,-0.11
1679064160007557868,-0.112
1679064160015254744,-0.096
1679064160022951620,-0.066
1679064160030648496,-0.058
1679064160038345372,-0.073
1679064160046042248,-0.1
1679064160053739124,-0.131
1679064160061436000,-0.139
1679064160069132876,-0.123
1679064160076829752,-0.1,,833
1679064160084526628,-0.091
1679064160092223504,-0.089
1679064160099920380,-0.075
1679064160107617256,-0.052000000000000005
1679064160115314132,-0.035
1679064160123011008,-0.02
1679064160130707884,0.004
1679064160138404760,0.025
1679064160146101636,0.02
1679064160153798512,0.018000000000000002
1679064160161495388,0.043000000000000003
1679064160169192264,0.075
1679064160176889140,0.075
1679064160184586016,0.056
1679064160192282892,0.085
1679064160199979768,0.152
1679064160207676644,0.164
1679064160215373520,0.146
1679064160223070396,0.169
1679064160230767272,0.20800000000000002
1679064160238464148,0.231
1679064160246161024,0.252
1679064160253857900,0.281
1679064160261554776,0.294
1679064160269251690,0.256
1679064160276948287,0.198
1679064160284644884,0.162
1679064160292341481,0.152
1679064160300038078,0.131
1679064160307734675,0.114
1679064160315431272,0.135
1679064160323127869,0.158
1679064160330824466,0.139
1679064160338521063,0.116
1679064160346217660,0.212
1679064160353914257,0.528
1679064160361610854,0.987
1679064160369307451,1.2730000000000001
1679064160377004048,0.845
1679064160384700645,-0.17500000000000002
1679064160392397242,-0.626
1679064160400093839,-0.252
1679064160407790436,-0.006
1679064160415487033,-0.093
1679064160423183630,-0.114
1679064160430880227,-0.077
1679064160438576824,-0.11
1679064160446273421,-0.127
1679064160453970018,-0.10400000000000001
1679064160461666615,-0.091
1679064160469363212,-0.085
1679064160477059809,-0.07
1679064160484756406,-0.127
1679064160492453003,-0.331
1679064160500149600,-0.47300000000000003
1679064160507846197,-0.40900000000000003
1679064160515542794,-0.373
1679064160523239391,-0.388
1679064160530935988,-0.338
1679064160538632585,-0.317
1679064160546329182,-0.317
1679064160554025779,-0.20400000000000001
1679064160561722376,0.022
1679064160569418973,0.20400000000000001
1679064160577115570,0.231
1679064160584812167,0.229
1679064160592508764,0.263
1679064160600205361,0.23500000000000001
1679064160607901958,0.181
1679064160615598555,0.169
1679064160623295152,0.158
1679064160630991749,0.123
1679064160638688346,0.075
1679064160646384943,0.004
1679064160654081540,-0.085
1679064160661778137,-0.154
1679064160669474734,-0.21
1679064160677171331,-0.227
1679064160684867928,-0.189
1679064160692564525,-0.229
1679064160700261122,-0.292
1679064160707957719,-0.2
1679064160715654316,-0.125
1679064160723350913,-0.154
1679064160731047510,-0.129
1679064160738744107,-0.077
1679064160746440704,-0.077
1679064160754137301,-0.077
1679064160761833898,-0.052000000000000005
1679064160769530495,-0.029
1679064160777227092,-0.014
1679064160784923689,-0.027
1679064160792620286,-0.035
1679064160800316883,-0.012
1679064160808013480,0.006
1679064160815710077,0.012
1679064160823406674,0.037
1679064160831103328,0.06,69
1679064160838800065,0.058
1679064160846496802,0.058
1679064160854193539,0.066
1679064160861890276,0.066
1679064160869587013,0.079
1679064160877283750,0.112
1679064160884980487,0.112
1679064160892677224,0.041
1679064160900373961,-0.07,,826
1679064160908070698,-0.129
1679064160915767435,-0.162
1679064160923464172,-0.24
1679064160931160909,-0.26
1679064160938857646,-0.185
1679064160946554383,-0.137
1679064160954251120,-0.137
1679064160961947857,-0.123
1679064160969644594,-0.093
1679064160977341331,-0.068
1679064160985038068,-0.043000000000000003
1679064160992734805,-0.037
1679064161000431542,-0.045
1679064161008128279,-0.031
1679064161015825016,-0.006
1679064161023521753,0.0
1679064161031218490,-0.02
1679064161038915227,-0.025
1679064161046611964,-0.01
1679064161054308701,-0.039
1679064161062005438,-0.127
1679064161069702175,-0.244
1679064161077398912,-0.298
1679064161085095649,-0.254
1679064161092792386,-0.158
1679064161100489123,-0.029
1679064161108185860,0.11800000000000001
1679064161115882597,0.192
1679064161123579334,0.146
1679064161131276071,0.121
1679064161138972808,0.248
1679064161146669545,0.615
1679064161154366282,1.171
1679064161162063019,1.448
1679064161169759756,0.855
1679064161177456493,-0.146
1679064161185153230,-0.29
1679064161192849967,0.227
1679064161200546704,0.352
1679064161208243441,0.225
1679064161215940178,0.28300000000000003
1679064161223636915,0.34
1679064161231333652,0.296
1679064161239030389,0.3
1679064161246727126,0.35000000000000003
1679064161254423863,0.342
1679064161262120600,0.28500000000000003
1679064161269817337,0.242
1679064161277514074,0.217
1679064161285210811,0.196
1679064161292907548,0.181
1679064161300604285,0.17500000000000002
1679064161308301022,0.181
1679064161315997759,0.196
1679064161323694496,0.20400000000000001
1679064161331391233,0.221
1679064161339087970,0.23500000000000001
1679064161346784707,0.217
1679064161354481444,0.133
1679064161362178181,0.004
1679064161369874918,-0.058
1679064161377571655,0.031
1679064161385268392,0.212
1679064161392965140,0.336
1679064161400662016,0.3
1679064161408358892,0.192
1679064161416055768,0.146
1679064161423752644,0.089
1679064161431449520,-0.096
1679064161439146396,-0.365
1679064161446843272,-0.54
1679064161454540148,-0.542
1679064161462237024,-0.509
1679064161469933900,-0.511
1679064161477630776,-0.484
1679064161485327652,-0.448
1679064161493024528,-0.44
1679064161500721404,-0.46900000000000003
1679064161508418280,-0.505
1679064161516115156,-0.425
1679064161523812032,-0.384
1679064161531508908,-0.496
1679064161539205784,-0.46900000000000003
1679064161546902660,-0.315
1679064161554599536,-0.29
1679064161562296412,-0.336
1679064161569993288,-0.4
1679064161577690164,-0.505
1679064161585387040,-0.509
1679064161593083916,-0.423
1679064161600780792,-0.384
1679064161608477668,-0.342
1679064161616174544,-0.279
1679064161623871420,-0.20600000000000002
1679064161631568296,-0.004
1679064161639265172,0.192
1679064161646962048,0.1
1679064161654658924,-0.075
1679064161662355800,-0.089
1679064161670052676,-0.077
1679064161677749552,-0.1
1679064161685446428,-0.085
1679064161693143304,-0.062,,792
1679064161700840180,-0.035
1679064161708537056,0.004
1679064161716233932,0.006
1679064161723930808,0.0
1679064161731627684,0.035
1679064161739324560,0.054
1679064161747021436,0.035
1679064161754718312,0.031
1679064161762415188,0.016
1679064161770112064,-0.027
1679064161777808940,-0.035
1679064161785505816,-0.02
1679064161793202692,-0.033
1679064161800899568,-0.05
1679064161808596444,-0.035
1679064161816293320,0.016
1679064161823990196,0.098
1679064161831687072,0.198
1679064161839383948,0.325
1679064161847080824,0.45
1679064161854777700,0.505
1679064161862474576,0.48
1679064161870171452,0.44
1679064161877868328,0.432
1679064161885565204,0.438
1679064161893262080,0.423
1679064161900958956,0.371
1679064161908655832,0.294
1679064161916352708,0.23700000000000002
1679064161924049584,0.223
1679064161931746460,0.215
1679064161939443336,0.246
1679064161947140212,0.47100000000000003
1679064161954837124,0.93,70
1679064161962534000,1.292
1679064161970230876,0.935
1679064161977927752,-0.127
1679064161985624628,-0.715
1679064161993321504,-0.336
1679064162001018380,-0.05
1679064162008715256,-0.229
1679064162016412132,-0.281
1679064162024109008,-0.183
1679064162031805884,-0.202
1679064162039502760,-0.277
1679064162047199636,-0.308
1679064162054896512,-0.311
1679064162062593388,-0.304
1679064162070290264,-0.296
1679064162077987140,-0.28500000000000003
1679064162085684016,-0.267
1679064162093380892,-0.242
1679064162101077768,-0.221
1679064162108774644,-0.187
1679064162116471520,-0.14100000000000001
1679064162124168396,-0.116
1679064162131865272,-0.114
1679064162139562148,-0.089
1679064162147259024,-0.035
1679064162154955900,0.0
1679064162162652776,0.012
1679064162170349652,0.041
1679064162178046528,0.077
1679064162185743404,0.091
1679064162193440280,0.108
1679064162201137156,0.14100000000000001
1679064162208834032,0.156
1679064162216530908,0.127
1679064162224227784,0.075
1679064162231924660,0.027
1679064162239621536,-0.022
1679064162247318412,-0.083
1679064162255015288,-0.162
1679064162262712164,-0.256
1679064162270409040,-0.321
1679064162278105916,-0.34400000000000003
1679064162285802792,-0.352
1679064162293499668,-0.34
1679064162301196544,-0.315
1679064162308893420,-0.311
1679064162316590296,-0.313
1679064162324287172,-0.277
1679064162331984048,-0.231
1679064162339680924,-0.20800000000000002
1679064162347377800,-0.192
1679064162355074676,-0.177
1679064162362771552,-0.17500000000000002
1679064162370468428,-0.171
1679064162378165304,-0.14400000000000002
1679064162385862180,-0.1
1679064162393559056,-0.075
1679064162401255932,-0.096
1679064162408952808,-0.158
1679064162416649684,-0.2
1679064162424346560,-0.189
1679064162432043436,-0.177
1679064162439740312,-0.166
1679064162447437188,-0.137
1679064162455134064,-0.131
1679064162462830940,-0.137
1679064162470527816,-0.114
1679064162478224692,-0.079
1679064162485921568,-0.068
1679064162493618444,-0.073
1679064162501315320,-0.08700000000000001
1679064162509012196,-0.121
1679064162516709108,-0.139,70
1679064162524405566,-0.123
1679064162532102024,-0.091,,841
1679064162539798482,-0.081
1679064162547494940,-0.11800000000000001
1679064162555191398,-0.171
1679064162562887856,-0.158
1679064162570584314,-0.11800000000000001
1679064162578280772,-0.114
1679064162585977230,-0.121
1679064162593673688,-0.10400000000000001
1679064162601370146,-0.083
1679064162609066604,-0.066
1679064162616763062,-0.048
1679064162624459520,-0.02
1679064162632155978,0.0
1679064162639852436,-0.004
1679064162647548894,0.0
1679064162655245352,0.052000000000000005
1679064162662941810,0.11
1679064162670638268,0.135
1679064162678334726,0.15
1679064162686031184,0.15
1679064162693727642,0.11800000000000001
1679064162701424100,0.112
1679064162709120558,0.14100000000000001
1679064162716817016,0.146
1679064162724513474,0.114
1679064162732209932,0.091
1679064162739906390,0.096
1679064162747602848,0.091
1679064162755299306,0.062
1679064162762995764,0.198
1679064162770692222,0.736
1679064162778388680,1.4060000000000001
1679064162786085138,1.697
1679064162793781596,1.292
1679064162801478054,0.323
1679064162809174512,-0.169
1679064162816870970,0.221
1679064162824567428,0.486
1679064162832263886,0.342
1679064162839960344,0.34400000000000003
1679064162847656802,0.423
1679064162855353260,0.363
1679064162863049718,0.34800000000000003
1679064162870746176,0.41500000000000004
1679064162878442634,0.41500000000000004
1679064162886139092,0.371
1679064162893835550,0.371
1679064162901532008,0.396
1679064162909228466,0.35000000000000003
1679064162916924924,0.225
1679064162924621382,0.198
1679064162932317840,0.281
1679064162940014298,0.281
1679064162947710756,0.23500000000000001
1679064162955407214,0.271
1679064162963103672,0.294
1679064162970800130,0.258
1679064162978496588,0.254
1679064162986193046,0.302
1679064162993889504,0.327
1679064163001585962,0.302
1679064163009282420,0.281
1679064163016978878,0.296
1679064163024675336,0.319
1679064163032371794,0.327
1679064163040068252,0.327
1679064163047764710,0.3
1679064163055461168,0.225
1679064163063157626,0.127
1679064163070854084,0.041
1679064163078550574,-0.01
1679064163086247032,-0.054
1679064163093943490,-0.135
1679064163101639948,-0.21
1679064163109336406,-0.20400000000000001
1679064163117032864,-0.20800000000000002
1679064163124729322,-0.279
1679064163132425780,-0.296
1679064163140122238,-0.242
1679064163147818696,-0.242
1679064163155515154,-0.279
1679064163163211612,-0.26
1679064163170908070,-0.231
1679064163178604528,-0.338
1679064163186300986,-0.596
1679064163193997444,-0.713
1679064163201693902,-0.605
1679064163209390360,-0.544
1679064163217086818,-0.532
1679064163224783276,-0.444
1679064163232479734,-0.39
1679064163240176192,-0.421
1679064163247872650,-0.434
1679064163255569108,-0.386
1679064163263265566,-0.359
1679064163270962024,-0.363
1679064163278658482,-0.336
1679064163286354940,-0.296
1679064163294051398,-0.277
1679064163301747856,-0.265
1679064163309444314,-0.244
1679064163317140772,-0.202
1679064163324837230,-0.171
1679064163332533688,-0.179
1679064163340230146,-0.177
1679064163347926604,-0.131
1679064163355623062,-0.096
1679064163363319520,-0.096
1679064163371015978,-0.08700000000000001
1679064163378712436,-0.05,,841
1679064163386408894,-0.022
1679064163394105352,-0.025
1679064163401801810,-0.016
1679064163409498268,-0.018000000000000002
1679064163417194726,-0.083
1679064163424891184,-0.125
1679064163432587642,-0.10400000000000001
1679064163440284100,-0.066
1679064163447980558,-0.033
1679064163455677016,-0.031
1679064163463373474,-0.048
1679064163471069932,-0.05
1679064163478766390,-0.056
1679064163486462848,-0.083
1679064163494159306,-0.093
1679064163501855764,-0.083
1679064163509552222,-0.079
1679064163517248680,-0.091
1679064163524945138,-0.077
1679064163532641596,0.02
1679064163540338054,0.311
1679064163548034512,0.8320000000000001
1679064163555730970,1.264
1679064163563427428,0.893
1679064163571123886,-0.23500000000000001
1679064163578820344,-0.713
1679064163586516802,-0.217
1679064163594213260,0.064
1679064163601909718,-0.016
1679064163609606176,0.039
1679064163617302634,0.091
1679064163624999092,0.056
1679064163632695550,0.091
1679064163640392042,0.15,71
1679064163648088918,0.15
1679064163655785794,0.146
1679064163663482670,0.162
1679064163671179546,0.189
1679064163678876422,0.212
1679064163686573298,0.231
1679064163694270174,0.25
1679064163701967050,0.26
1679064163709663926,0.29
1679064163717360802,0.452
1679064163725057678,0.7030000000000001
1679064163732754554,0.72
1679064163740451430,0.536
1679064163748148306,0.465
1679064163755845182,0.46900000000000003
1679064163763542058,0.463
1679064163771238934,0.505
1679064163778935810,0.538
1679064163786632686,0.526
1679064163794329562,0.511
1679064163802026438,0.47100000000000003
1679064163809723314,0.28500000000000003
1679064163817420190,0.029
1679064163825117066,-0.012
1679064163832813942,0.079
1679064163840510818,0.066
1679064163848207694,0.075
1679064163855904570,0.225
1679064163863601446,0.302
1679064163871298322,0.219
1679064163878995198,0.185
1679064163886692074,0.2
1679064163894388950,0.146
1679064163902085826,0.098
1679064163909782702,0.098
1679064163917479578,0.041
1679064163925176454,-0.075
1679064163932873330,-0.139
1679064163940570206,-0.137
1679064163948267082,-0.131
1679064163955963958,-0.152
1679064163963660834,-0.183
1679064163971357710,-0.217
1679064163979054586,-0.28800000000000003
1679064163986751462,-0.41300000000000003
1679064163994448338,-0.494
1679064164002145214,-0.455
1679064164009842090,-0.333
1679064164017538966,-0.179
1679064164025235842,-0.085
1679064164032932718,-0.166
1679064164040629594,-0.3
1679064164048326470,-0.275
1679064164056023346,-0.225
1679064164063720222,-0.28800000000000003
1679064164071417098,-0.162
1679064164079113974,0.06
1679064164086810850,0.016
1679064164094507726,-0.031
1679064164102204602,0.075
1679064164109901478,0.085
1679064164117598354,0.022
1679064164125295230,0.035
1679064164132992106,0.073
1679064164140688982,0.096
1679064164148385858,0.127
1679064164156082734,0.166
1679064164163779610,0.139,,791
1679064164171476486,-0.025
1679064164179173362,-0.169
1679064164186870238,-0.068
1679064164194567114,0.17300000000000001
1679064164202264026,0.273
1679064164209960902,0.196
1679064164217657778,0.169
1679064164225354654,0.198
1679064164233051530,0.154
1679064164240748406,0.108
1679064164248445282,0.112
1679064164256142158,0.08700000000000001
1679064164263839034,0.10400000000000001
1679064164271535910,0.381
1679064164279232786,0.8320000000000001
1679064164286929662,1.072
1679064164294626538,0.628
1679064164302323414,-0.313
1679064164310020290,-0.5650000000000001
1679064164317717166,-0.056
1679064164325414042,0.133
1679064164333110918,0.043000000000000003
1679064164340807794,0.14400000000000002
1679064164348504670,0.221
1679064164356201546,0.169
1679064164363898422,0.181
1679064164371595298,0.267
1679064164379292174,0.296
1679064164386989050,0.265
1679064164394685926,0.273
1679064164402382802,0.313
1679064164410079678,0.292
1679064164417776554,0.254
1679064164425473430,0.273
1679064164433170306,0.242
1679064164440867182,0.166
1679064164448564058,0.183
1679064164456260934,0.231
1679064164463957810,0.244
1679064164471654686,0.26
1679064164479351562,0.267
1679064164487048438,0.252
1679064164494745314,0.26
1679064164502442190,0.281
1679064164510139066,0.296
1679064164517835942,0.311
1679064164525532818,0.306
1679064164533229694,0.269
1679064164540926570,0.246
1679064164548623446,0.246
1679064164556320322,0.221
1679064164564017198,0.169
1679064164571714074,0.11800000000000001
1679064164579410950,0.062
1679064164587107826,0.0
1679064164594804702,-0.033
1679064164602501578,-0.035
1679064164610198454,-0.052000000000000005
1679064164617895330,-0.11800000000000001
1679064164625592206,-0.23500000000000001
1679064164633289082,-0.34400000000000003
1679064164640985958,-0.373
1679064164648682834,-0.34800000000000003
1679064164656379710,-0.323
1679064164664076586,-0.292
1679064164671773462,-0.265
1679064164679470338,-0.263
1679064164687167214,-0.26
1679064164694864090,-0.248
1679064164702560966,-0.267
1679064164710257842,-0.313
1679064164717954718,-0.363
1679064164725651594,-0.41500000000000004
1679064164733348470,-0.44
1679064164741045346,-0.43
1679064164748742222,-0.40900000000000003
1679064164756439098,-0.379
1679064164764136010,-0.338,71
1679064164771832468,-0.26
1679064164779528926,-0.123
1679064164787225384,0.06
1679064164794921842,0.166
1679064164802618300,0.129
1679064164810314758,0.077
1679064164818011216,0.089
1679064164825707674,0.062
1679064164833404132,-0.006
1679064164841100590,-0.018000000000000002
1679064164848797048,-0.006
1679064164856493506,-0.035
1679064164864189964,-0.037
1679064164871886422,0.018000000000000002
1679064164879582880,0.06
1679064164887279338,0.07
1679064164894975796,0.06
1679064164902672254,0.029
1679064164910368712,0.014
1679064164918065170,0.031
1679064164925761628,0.037
1679064164933458086,0.004
1679064164941154544,-0.056
1679064164948851002,-0.096
1679064164956547460,-0.089
1679064164964243918,-0.108
1679064164971940376,-0.169,,803
1679064164979636834,-0.085
1679064164987333292,0.352
1679064164995029750,0.997
1679064165002726208,1.26
1679064165010422666,0.555
1679064165018119124,-0.559
1679064165025815582,-0.674
1679064165033512040,-0.093
1679064165041208498,-0.033
1679064165048904956,-0.217
1679064165056601414,-0.14100000000000001
1679064165064297872,-0.058
1679064165071994330,-0.033
1679064165079690788,0.031
1679064165087387246,0.056
1679064165095083704,0.05
1679064165102780162,0.07
1679064165110476620,0.098
1679064165118173078,0.125
1679064165125869536,0.146
1679064165133565994,0.14400000000000002
1679064165141262452,0.154
1679064165148958910,0.196
1679064165156655368,0.223
1679064165164351826,0.227
1679064165172048284,0.244
1679064165179744742,0.267
1679064165187441200,0.271
1679064165195137658,0.29
1679064165202834116,0.338
1679064165210530574,0.354
1679064165218227032,0.308
1679064165225923490,0.269
1679064165233619948,0.281
1679064165241316406,0.319
1679064165249012864,0.342
1679064165256709322,0.359
1679064165264405780,0.361
1679064165272102238,0.319
1679064165279798696,0.25
1679064165287495154,0.2
1679064165295191612,0.17300000000000001
1679064165302888070,0.14400000000000002
1679064165310584528,0.116
1679064165318280986,0.089
1679064165325977476,0.062
1679064165333674352,0.041
1679064165341371228,0.033
1679064165349068104,0.041
1679064165356764980,0.048
1679064165364461856,0.016
1679064165372158732,-0.043000000000000003
1679064165379855608,-0.062
1679064165387552484,-0.031
1679064165395249360,-0.02
1679064165402946236,-0.039
1679064165410643112,-0.041
1679064165418339988,-0.014
1679064165426036864,0.008
1679064165433733740,-0.008
1679064165441430616,-0.056
1679064165449127492,-0.073
1679064165456824368,-0.079
1679064165464521244,-0.11800000000000001
1679064165472218120,-0.127
1679064165479914996,-0.106
1679064165487611872,-0.125
1679064165495308748,-0.162
1679064165503005624,-0.181
1679064165510702500,-0.20400000000000001
1679064165518399376,-0.225
1679064165526096252,-0.219
1679064165533793128,-0.198
1679064165541490004,-0.196
1679064165549186880,-0.215
1679064165556883756,-0.217
1679064165564580632,-0.196
1679064165572277508,-0.179
1679064165579974384,-0.164
1679064165587671260,-0.131
1679064165595368136,-0.10200000000000001
1679064165603065012,-0.085
1679064165610761888,-0.08700000000000001
1679064165618458764,-0.112
1679064165626155640,-0.123
1679064165633852516,-0.112
1679064165641549392,-0.127
1679064165649246268,-0.14400000000000002
1679064165656943144,-0.133
1679064165664640020,-0.133
1679064165672336896,-0.148
1679064165680033772,-0.158
1679064165687730648,-0.148
1679064165695427524,-0.006
1679064165703124400,0.402
1679064165710821276,0.9470000000000001
1679064165718518152,1.1500000000000001
1679064165726215028,0.465
1679064165733911904,-0.5760000000000001
1679064165741608780,-0.645
1679064165749305656,-0.079
1679064165757002532,-0.01
1679064165764699408,-0.158
1679064165772396284,-0.066
1679064165780093160,0.006
1679064165787790036,-0.018000000000000002,,822
1679064165795486912,-0.008
1679064165803183788,0.025
1679064165810880664,0.045
1679064165818577540,0.05
1679064165826274416,0.056
1679064165833971292,0.106
1679064165841668168,0.194
1679064165849365044,0.256
1679064165857061920,0.273
1679064165864758796,0.298
1679064165872455672,0.333
1679064165880152548,0.35000000000000003
1679064165887849460,0.361,71
1679064165895546336,0.373
1679064165903243212,0.377
1679064165910940088,0.352
1679064165918636964,0.28800000000000003
1679064165926333840,0.185
1679064165934030716,0.11
1679064165941727592,0.112
1679064165949424468,0.081
1679064165957121344,-0.008
1679064165964818220,-0.062
1679064165972515096,-0.098
1679064165980211972,-0.121
1679064165987908848,-0.112
1679064165995605724,-0.137
1679064166003302600,-0.254
1679064166010999476,-0.367
1679064166018696352,-0.404
1679064166026393228,-0.427
1679064166034090104,-0.442
1679064166041786980,-0.4
1679064166049483856,-0.359
1679064166057180732,-0.373
1679064166064877608,-0.365
1679064166072574484,-0.296
1679064166080271360,-0.233
1679064166087968236,-0.217
1679064166095665112,-0.2
1679064166103361988,-0.16
1679064166111058864,-0.131
1679064166118755740,-0.152
1679064166126452616,-0.17500000000000002
1679064166134149492,-0.139
1679064166141846368,-0.10400000000000001
1679064166149543244,-0.137
1679064166157240120,-0.169
1679064166164936996,-0.14400000000000002
1679064166172633872,-0.121
1679064166180330748,-0.123
1679064166188027624,-0.11800000000000001
1679064166195724500,-0.127
1679064166203421376,-0.171
1679064166211118252,-0.2
1679064166218815128,-0.185
1679064166226512004,-0.158
1679064166234208880,-0.152
1679064166241905756,-0.162
1679064166249602632,-0.158
1679064166257299508,-0.116
1679064166264996384,-0.064
1679064166272693260,-0.037
1679064166280390136,-0.014
1679064166288087012,-0.002
1679064166295783888,-0.039
1679064166303480764,-0.08700000000000001
1679064166311177640,-0.1
1679064166318874516,-0.096
1679064166326571392,-0.127
1679064166334268268,-0.177
1679064166341965144,-0.185
1679064166349662020,-0.162
1679064166357358896,-0.164
1679064166365055772,-0.187
1679064166372752648,-0.127
1679064166380449524,0.179
1679064166388146400,0.732
1679064166395843276,1.1480000000000001
1679064166403540152,0.753
1679064166411237028,-0.34400000000000003
1679064166418933904,-0.807
1679064166426630780,-0.311
1679064166434327656,-0.039
1679064166442024532,-0.223
1679064166449721442,-0.265,73
1679064166457417900,-0.198
1679064166465114358,-0.212
1679064166472810816,-0.242
1679064166480507274,-0.265
1679064166488203732,-0.28300000000000003
1679064166495900190,-0.252
1679064166503596648,-0.215
1679064166511293106,-0.215
1679064166518989564,-0.21
1679064166526686022,-0.17500000000000002
1679064166534382480,-0.14100000000000001
1679064166542078938,-0.121
1679064166549775396,-0.089
1679064166557471854,-0.048
1679064166565168312,-0.033,,771
1679064166572864770,-0.027
1679064166580561228,0.01
1679064166588257686,0.06
1679064166595954144,0.08700000000000001
1679064166603650602,0.1
1679064166611347060,0.11800000000000001
1679064166619043518,0.146
1679064166626739976,0.169
1679064166634436434,0.183
1679064166642132892,0.20400000000000001
1679064166649829350,0.227
1679064166657525808,0.21
1679064166665222266,0.17500000000000002
1679064166672918724,0.156
1679064166680615182,0.135
1679064166688311640,0.085
1679064166696008098,0.018000000000000002
1679064166703704556,-0.027
1679064166711401014,-0.035
1679064166719097472,-0.035
1679064166726793930,-0.031
1679064166734490388,-0.008
1679064166742186846,0.014
1679064166749883304,0.01
1679064166757579762,0.018000000000000002
1679064166765276220,0.056
1679064166772972678,0.08700000000000001
1679064166780669136,0.091
1679064166788365594,0.098
1679064166796062052,0.112
1679064166803758510,0.123
1679064166811454968,0.127
1679064166819151426,0.14100000000000001
1679064166826847884,0.166
1679064166834544342,0.181
1679064166842240800,0.166
1679064166849937258,0.158
1679064166857633716,0.181
1679064166865330174,0.198
1679064166873026632,0.192
1679064166880723090,0.194
1679064166888419548,0.2
1679064166896116006,0.192
1679064166903812464,0.183
1679064166911508922,0.189
1679064166919205380,0.181
1679064166926901838,0.164
1679064166934598296,0.152
1679064166942294754,0.129
1679064166949991212,0.096
1679064166957687670,0.022
1679064166965384128,-0.077
1679064166973080586,-0.114
1679064166980777044,-0.106
1679064166988473502,-0.116
1679064166996169960,-0.121
1679064167003866418,-0.098
1679064167011562912,-0.085
1679064167019259788,-0.096
1679064167026956664,-0.108
1679064167034653540,-0.112
1679064167042350416,-0.058
1679064167050047292,0.227
1679064167057744168,0.784
1679064167065441044,1.227
1679064167073137920,0.8260000000000001
1679064167080834796,-0.352
1679064167088531672,-0.897
1679064167096228548,-0.41500000000000004
1679064167103925424,-0.162
1679064167111622300,-0.367
1679064167119319176,-0.369
1679064167127016052,-0.263
1679064167134712928,-0.292
1679064167142409804,-0.302
1679064167150106680,-0.246
1679064167157803556,-0.225
1679064167165500432,-0.23700000000000002
1679064167173197308,-0.231
1679064167180894184,-0.223
1679064167188591060,-0.242
1679064167196287936,-0.248
1679064167203984812,-0.231
1679064167211681688,-0.217
1679064167219378564,-0.194
1679064167227075440,-0.164
1679064167234772316,-0.139
1679064167242469192,-0.10400000000000001
1679064167250166068,-0.066
1679064167257862944,-0.056
1679064167265559820,-0.045
1679064167273256696,0.0
1679064167280953572,0.045
1679064167288650448,0.066,,729
1679064167296347324,0.081
1679064167304044200,0.1
1679064167311741076,0.11800000000000001
1679064167319437952,0.129
1679064167327134828,0.133
1679064167334831704,0.139
1679064167342528580,0.125
1679064167350225456,0.068
1679064167357922332,0.016
1679064167365619208,0.008
1679064167373316084,0.008
1679064167381012960,-0.004
1679064167388709836,-0.004
1679064167396406712,0.004
1679064167404103588,0.008
1679064167411800464,0.02
1679064167419497340,0.045
1679064167427194216,0.05
1679064167434891092,0.014
1679064167442587968,-0.02
1679064167450284844,-0.016
1679064167457981720,-0.035
1679064167465678596,-0.108
1679064167473375472,-0.139
1679064167481072348,-0.11
1679064167488769224,-0.10400000000000001
1679064167496466100,-0.112
1679064167504162976,-0.1
1679064167511859852,-0.073
1679064167519556728,-0.052000000000000005
1679064167527253604,-0.043000000000000003
1679064167534950480,-0.052000000000000005
1679064167542647356,-0.043000000000000003
1679064167550344232,-0.014
1679064167558041108,-0.002
1679064167565737984,0.004
1679064167573434896,0.027,74
1679064167581131772,0.039
1679064167588828648,0.033
1679064167596525524,0.039
1679064167604222400,0.068
1679064167611919276,0.098
1679064167619616152,0.123
1679064167627313028,0.135
1679064167635009904,0.154
1679064167642706780,0.156
1679064167650403656,0.064
1679064167658100532,-0.041
1679064167665797408,-0.045
1679064167673494284,-0.045
1679064167681191160,-0.10200000000000001
1679064167688888036,-0.11
1679064167696584912,-0.075
1679064167704281788,-0.068
1679064167711978664,-0.079
1679064167719675540,-0.089
1679064167727372416,-0.07
1679064167735069292,0.14400000000000002
1679064167742766168,0.657
1679064167750463044,1.168
1679064167758159920,1.018
1679064167765856796,0.02
1679064167773553672,-0.6970000000000001
1679064167781250548,-0.34600000000000003
1679064167788947424,0.08700000000000001
1679064167796644300,-0.008
1679064167804341176,-0.085
1679064167812038052,-0.016
1679064167819734928,-0.045
1679064167827431804,-0.098
1679064167835128680,-0.096
1679064167842825556,-0.081
1679064167850522432,-0.075
1679064167858219308,-0.077
1679064167865916184,-0.073
1679064167873613060,-0.012
1679064167881309936,0.154
1679064167889006812,0.28500000000000003
1679064167896703688,0.215
1679064167904400564,0.164
1679064167912097440,0.17500000000000002
1679064167919794316,0.016
1679064167927491192,-0.108
1679064167935188068,-0.037
1679064167942884944,0.006
1679064167950581820,-0.031
1679064167958278696,-0.018000000000000002
1679064167965975572,-0.012
1679064167973672448,-0.07
1679064167981369324,-0.098
1679064167989066200,-0.081
1679064167996763076,-0.077
1679064168004459952,-0.068,,715
1679064168012156828,-0.033
1679064168019853704,0.025
1679064168027550580,0.091
1679064168035247456,0.033
1679064168042944332,-0.14400000000000002
1679064168050641208,-0.11800000000000001
1679064168058338084,0.114
1679064168066034960,0.177
1679064168073731836,0.079
1679064168081428712,0.10200000000000001
1679064168089125588,0.20400000000000001
1679064168096822464,0.221
1679064168104519340,0.079
1679064168112216216,-0.171
1679064168119913092,-0.23500000000000001
1679064168127609968,-0.112
1679064168135306880,-0.062
1679064168143003617,-0.041
1679064168150700354,0.035
1679064168158397091,0.187
1679064168166093828,0.336
1679064168173790565,0.315
1679064168181487302,0.221
1679064168189184039,0.181
1679064168196880776,0.171
1679064168204577513,0.215
1679064168212274250,0.273
1679064168219970987,0.25
1679064168227667724,0.2
1679064168235364461,0.20800000000000002
1679064168243061198,0.225
1679064168250757935,0.21
1679064168258454672,0.20800000000000002
1679064168266151409,0.225
1679064168273848146,0.217
1679064168281544883,0.185
1679064168289241620,0.171
1679064168296938357,0.212
1679064168304635094,0.281
1679064168312331831,0.298
1679064168320028568,0.28300000000000003
1679064168327725305,0.281
1679064168335422042,0.23700000000000002
1679064168343118779,0.17500000000000002
1679064168350815516,0.192
1679064168358512253,0.23500000000000001
1679064168366208990,0.21
1679064168373905727,0.158
1679064168381602464,0.158
1679064168389299201,0.177
1679064168396995938,0.17500000000000002
1679064168404692675,0.146
1679064168412389412,0.14100000000000001
1679064168420086149,0.336
1679064168427782886,0.795
1679064168435479623,1.208
1679064168443176360,0.928
1679064168450873097,-0.033
1679064168458569834,-0.536
1679064168466266571,-0.227
1679064168473963308,-0.002
1679064168481660045,-0.056
1679064168489356782,-0.031
1679064168497053519,0.012
1679064168504750256,-0.002
1679064168512446993,0.004
1679064168520143730,0.01
1679064168527840467,-0.01
1679064168535537204,-0.012
1679064168543233941,-0.02
1679064168550930678,-0.068
1679064168558627415,-0.075
1679064168566324152,-0.039
1679064168574020889,-0.037
1679064168581717626,-0.041
1679064168589414363,-0.014
1679064168597111100,-0.012
1679064168604807837,-0.20400000000000001
1679064168612504574,-0.503
1679064168620201311,-0.319
1679064168627898048,0.219
1679064168635594785,0.271
1679064168643291522,0.064
1679064168650988259,0.133
1679064168658684996,0.2
1679064168666381733,0.11
1679064168674078470,0.08700000000000001
1679064168681775207,0.133
1679064168689471944,0.125
1679064168697168690,0.098,76
1679064168704865287,0.089
1679064168712561884,0.079
1679064168720258481,0.052000000000000005,,715
1679064168727955078,0.008
1679064168735651675,-0.035
1679064168743348272,-0.043000000000000003
1679064168751044869,-0.039
1679064168758741466,-0.079
1679064168766438063,-0.133
1679064168774134660,-0.139
1679064168781831257,-0.129
1679064168789527854,-0.133
1679064168797224451,-0.112
1679064168804921048,-0.07
1679064168812617645,-0.039
1679064168820314242,-0.027
1679064168828010839,-0.016
1679064168835707436,0.004
1679064168843404033,0.025
1679064168851100630,0.035
1679064168858797227,0.052000000000000005
1679064168866493824,0.081
1679064168874190421,0.083
1679064168881887018,0.066
1679064168889583615,0.07
1679064168897280212,0.073
1679064168904976809,-0.002
1679064168912673406,-0.045
1679064168920370003,0.058
1679064168928066600,0.133
1679064168935763197,0.096
1679064168943459794,0.093
1679064168951156391,0.137
1679064168958852988,0.148
1679064168966549585,0.114
1679064168974246182,0.068
1679064168981942779,0.05
1679064168989639376,0.081
1679064168997335973,0.11
1679064169005032570,0.098
1679064169012729167,0.05
1679064169020425764,0.022
1679064169028122361,0.008
1679064169035818958,-0.129
1679064169043515555,-0.246
1679064169051212152,-0.098
1679064169058908749,-0.027
1679064169066605346,-0.202
1679064169074301943,-0.246
1679064169081998540,-0.183
1679064169089695137,-0.198
1679064169097391734,0.02
1679064169105088331,0.676
1679064169112784928,1.329
1679064169120481525,1.258
1679064169128178122,0.298
1679064169135874719,-0.488
1679064169143571316,-0.244
1679064169151267913,0.156
1679064169158964510,0.048
1679064169166661107,-0.018000000000000002
1679064169174357704,0.089
1679064169182054301,0.083
1679064169189750898,0.048
1679064169197447495,0.08700000000000001
1679064169205144092,0.10200000000000001
1679064169212840689,0.08700000000000001
1679064169220537286,0.10200000000000001
1679064169228233883,0.129
1679064169235930480,0.11800000000000001
1679064169243627077,0.077
1679064169251323674,0.064
1679064169259020330,0.056
1679064169266717206,0.006
1679064169274414082,-0.029
1679064169282110958,0.0
1679064169289807834,0.037
1679064169297504710,0.029
1679064169305201586,0.004
1679064169312898462,0.025
1679064169320595338,0.058
1679064169328292214,0.037
1679064169335989090,0.0
1679064169343685966,0.004
1679064169351382842,0.025
1679064169359079718,0.031
1679064169366776594,0.06
1679064169374473470,0.10200000000000001
1679064169382170346,0.093
1679064169389867222,0.045
1679064169397564098,-0.008,,680
1679064169405260974,-0.073
1679064169412957850,-0.125
1679064169420654726,-0.15
1679064169428351602,-0.169
1679064169436048478,-0.169
1679064169443745354,-0.148
1679064169451442230,-0.14100000000000001
1679064169459139106,-0.127
1679064169466835982,-0.10200000000000001
1679064169474532858,-0.125
1679064169482229734,-0.183
1679064169489926610,-0.181
1679064169497623486,-0.135
1679064169505320362,-0.11800000000000001
1679064169513017238,-0.121
1679064169520714114,-0.108
1679064169528410990,-0.083
1679064169536107866,-0.064
1679064169543804742,-0.05
1679064169551501618,-0.029
1679064169559198494,-0.004
1679064169566895370,-0.004
1679064169574592246,-0.008
1679064169582289122,0.012
1679064169589985998,0.045
1679064169597682874,0.056
1679064169605379750,0.056
1679064169613076626,0.064
1679064169620773502,0.079
1679064169628470378,0.091
1679064169636167254,0.10400000000000001
1679064169643864130,0.10400000000000001
1679064169651561006,0.07
1679064169659257882,0.031
1679064169666954758,0.031
1679064169674651634,0.058
1679064169682348510,0.089
1679064169690045386,0.121
1679064169697742262,0.146
1679064169705439138,0.169
1679064169713136014,0.179
1679064169720832890,0.15
1679064169728529766,0.125
1679064169736226642,0.152
1679064169743923518,0.17500000000000002
1679064169751620394,0.146
1679064169759317270,0.116
1679064169767014146,0.114
1679064169774711022,0.114
1679064169782407898,0.10400000000000001
1679064169790104774,0.089
1679064169797801650,0.14100000000000001
1679064169805498526,0.438
1679064169813195402,0.989
1679064169820892314,1.3860000000000001,77
1679064169828589190,0.972
1679064169836286066,-0.106
1679064169843982942,-0.54
1679064169851679818,-0.054
1679064169859376694,0.196
1679064169867073570,0.01
1679064169874770446,-0.027
1679064169882467322,0.035
1679064169890164198,-0.014
1679064169897861074,-0.077
1679064169905557950,-0.068
1679064169913254826,-0.052000000000000005
1679064169920951702,-0.073
1679064169928648578,-0.108
1679064169936345454,-0.146
1679064169944042330,-0.169
1679064169951739206,-0.156
1679064169959436082,-0.14100000000000001
1679064169967132958,-0.139
1679064169974829834,-0.154
1679064169982526710,-0.20600000000000002
1679064169990223586,-0.24
1679064169997920462,-0.20400000000000001
1679064170005617338,-0.166
1679064170013314214,-0.154
1679064170021011090,-0.146
1679064170028707966,-0.135
1679064170036404842,-0.116
1679064170044101718,-0.093
1679064170051798594,-0.083
1679064170059495470,-0.066
1679064170067192346,-0.039,,670
1679064170074889222,-0.035
1679064170082586098,-0.043000000000000003
1679064170090282974,-0.035
1679064170097979850,-0.029
1679064170105676726,-0.056
1679064170113373602,-0.1
1679064170121070478,-0.129
1679064170128767354,-0.135
1679064170136464230,-0.14400000000000002
1679064170144161106,-0.166
1679064170151857982,-0.16
1679064170159554858,-0.131
1679064170167251734,-0.131
1679064170174948610,-0.133
1679064170182645486,-0.096
1679064170190342362,-0.054
1679064170198039238,-0.039
1679064170205736114,-0.029
1679064170213432990,-0.004
1679064170221129866,0.016
1679064170228826742,0.027
1679064170236523618,0.041
1679064170244220494,0.068
1679064170251917370,0.089
1679064170259614246,0.081
1679064170267311122,0.079
1679064170275007998,0.108
1679064170282704874,0.131
1679064170290401750,0.133
1679064170298098626,0.137
1679064170305795502,0.148
1679064170313492378,0.154
1679064170321189254,0.156
1679064170328886130,0.166
1679064170336583006,0.192
1679064170344279882,0.20400000000000001
1679064170351976758,0.192
1679064170359673634,0.189
1679064170367370510,0.219
1679064170375067386,0.242
1679064170382764300,0.24
1679064170390462012,0.215
1679064170398159724,0.194
1679064170405857436,0.189
1679064170413555148,0.189
1679064170421252860,0.187
1679064170428950572,0.171
1679064170436648284,0.137
1679064170444345996,0.123
1679064170452043708,0.14400000000000002
1679064170459741420,0.166
1679064170467439132,0.148
1679064170475136844,0.064
1679064170482834556,-0.058
1679064170490532268,-0.146
1679064170498229980,-0.158
1679064170505927692,-0.148
1679064170513625404,-0.137
1679064170521323116,-0.116
1679064170529020828,-0.106
1679064170536718540,-0.114
1679064170544416252,-0.114
1679064170552113964,-0.085
1679064170559811676,0.064
1679064170567509388,0.5
1679064170575207100,1.066
1679064170582904812,1.139
1679064170590602524,0.28300000000000003
1679064170598300236,-0.651
1679064170605997948,-0.551
1679064170613695660,-0.093
1679064170621393372,-0.152
1679064170629091084,-0.296
1679064170636788796,-0.244
1679064170644486508,-0.233
1679064170652184220,-0.265
1679064170659881932,-0.225
1679064170667579644,-0.187
1679064170675277356,-0.192
1679064170682975068,-0.185
1679064170690672780,-0.15
1679064170698370492,-0.114
1679064170706068204,-0.096
1679064170713765916,-0.08700000000000001
1679064170721463628,-0.07
1679064170729161340,-0.039
1679064170736859052,-0.008
1679064170744556764,0.014
1679064170752254476,0.048
1679064170759952188,0.081,,687
1679064170767649900,0.081
1679064170775347612,0.079
1679064170783045324,0.10400000000000001
1679064170790743036,0.137
1679064170798440748,0.148
1679064170806138460,0.14100000000000001
1679064170813836172,0.14400000000000002
1679064170821533884,0.156
1679064170829231596,0.156
1679064170836929308,0.148
1679064170844627020,0.164
1679064170852324732,0.177
1679064170860022444,0.14100000000000001
1679064170867720156,0.093
1679064170875417868,0.062
1679064170883115580,0.016
1679064170890813292,-0.016
1679064170898511004,-0.01
1679064170906208716,0.002
1679064170913906428,0.01
1679064170921604140,0.033
1679064170929301852,0.058
1679064170936999564,0.083
1679064170944697320,0.1,79
1679064170952393360,0.096
1679064170960089400,0.096
1679064170967785440,0.11800000000000001
1679064170975481480,0.14400000000000002
1679064170983177520,0.127
1679064170990873560,0.066
1679064170998569600,0.033
1679064171006265640,-0.002
1679064171013961680,-0.079
1679064171021657720,-0.10200000000000001
1679064171029353760,-0.058
1679064171037049800,-0.054
1679064171044745840,-0.077
1679064171052441880,-0.06
1679064171060137920,-0.031
1679064171067833960,-0.018000000000000002
1679064171075530000,-0.01
1679064171083226040,0.01
1679064171090922080,0.029
1679064171098618120,0.033
1679064171106314160,0.039
1679064171114010200,0.035
1679064171121706240,0.0
1679064171129402280,-0.054
1679064171137098320,-0.083
1679064171144794360,-0.073
1679064171152490400,-0.056
1679064171160186440,-0.043000000000000003
1679064171167882480,-0.02
1679064171175578520,0.008
1679064171183274560,0.012
1679064171190970600,0.008
1679064171198666640,0.027
1679064171206362680,0.056
1679064171214058720,0.073
1679064171221754760,0.073
1679064171229450800,0.06
1679064171237146840,0.045
1679064171244842880,0.016
1679064171252538920,-0.01
1679064171260234960,0.052000000000000005
1679064171267931000,0.093
1679064171275627040,0.029
1679064171283323080,0.008
1679064171291019120,-0.031
1679064171298715160,-0.15
1679064171306411200,-0.152
1679064171314107240,-0.156
1679064171321803280,-0.377
1679064171329499320,-0.54
1679064171337195360,-0.427
1679064171344891400,-0.20400000000000001
1679064171352587440,0.014
1679064171360283480,0.089
1679064171367979520,-0.054
1679064171375675560,-0.081
1679064171383371600,0.1
1679064171391067640,0.133
1679064171398763680,0.064
1679064171406459720,0.083
1679064171414155760,0.171
1679064171421851800,0.553
1679064171429547840,1.162
1679064171437243880,1.2770000000000001
1679064171444939920,0.467,,684
1679064171452635960,-0.432
1679064171460332000,-0.40700000000000003
1679064171468028040,0.002
1679064171475724080,0.048
1679064171483420120,-0.035
1679064171491116160,-0.10200000000000001
1679064171498812200,-0.279
1679064171506508268,-0.419,80
1679064171514205144,-0.377
1679064171521902020,-0.3
1679064171529598896,-0.292
1679064171537295772,-0.275
1679064171544992648,-0.28800000000000003
1679064171552689524,-0.329
1679064171560386400,-0.25
1679064171568083276,-0.129
1679064171575780152,-0.11800000000000001
1679064171583477028,-0.043000000000000003
1679064171591173904,0.162
1679064171598870780,0.23500000000000001
1679064171606567656,0.189
1679064171614264532,0.202
1679064171621961408,0.20800000000000002
1679064171629658284,0.185
1679064171637355160,0.198
1679064171645052036,0.20400000000000001
1679064171652748912,0.20400000000000001
1679064171660445788,0.231
1679064171668142664,0.25
1679064171675839540,0.25
1679064171683536416,0.26
1679064171691233292,0.26
1679064171698930168,0.233
1679064171706627044,0.215
1679064171714323920,0.2
1679064171722020796,0.171
1679064171729717672,0.125
1679064171737414548,0.083
1679064171745111424,0.06
1679064171752808300,0.058
1679064171760505176,0.068
1679064171768202052,0.075
1679064171775898928,0.077
1679064171783595804,0.085
1679064171791292680,0.073
1679064171798989556,0.05
1679064171806686432,0.05
1679064171814383308,0.06
1679064171822080184,0.05
1679064171829777060,0.029
1679064171837473936,0.05
1679064171845170812,0.08700000000000001
1679064171852867688,0.07
1679064171860564564,0.041
1679064171868261440,0.02
1679064171875958316,-0.016
1679064171883655192,-0.039
1679064171891352068,-0.02
1679064171899048944,-0.002
1679064171906745820,0.004
1679064171914442696,0.008
1679064171922139572,0.016
1679064171929836448,0.027
1679064171937533324,0.033
1679064171945230200,0.039
1679064171952927076,0.052000000000000005
1679064171960623952,0.041
1679064171968320828,0.0
1679064171976017704,-0.039
1679064171983714580,-0.081
1679064171991411456,-0.158
1679064171999108332,-0.223
1679064172006805208,-0.23700000000000002
1679064172014502084,-0.24
1679064172022198960,-0.25
1679064172029895836,-0.252
1679064172037592712,-0.242
1679064172045289588,-0.21
1679064172052986464,-0.194
1679064172060683340,-0.21
1679064172068380252,-0.196
1679064172076076710,-0.135
1679064172083773168,-0.106
1679064172091469626,-0.116
1679064172099166084,-0.112
1679064172106862542,-0.121
1679064172114559000,-0.192
1679064172122255458,-0.273,,679
1679064172129951916,-0.265
1679064172137648374,-0.21
1679064172145344832,-0.20600000000000002
1679064172153041290,-0.223
1679064172160737748,-0.185
1679064172168434206,-0.116
1679064172176130664,-0.08700000000000001
1679064172183827122,-0.083
1679064172191523580,-0.06
1679064172199220038,-0.033
1679064172206916496,-0.014
1679064172214612954,0.012
1679064172222309412,0.045
1679064172230005870,0.158
1679064172237702328,0.507
1679064172245398786,1.033
1679064172253095244,1.29
1679064172260791702,0.724
1679064172268488160,-0.256
1679064172276184618,-0.427
1679064172283881076,0.064
1679064172291577534,0.202
1679064172299273992,0.093
1679064172306970450,0.152
1679064172314666908,0.221
1679064172322363366,0.20600000000000002
1679064172330059824,0.217
1679064172337756282,0.242
1679064172345452740,0.244
1679064172353149198,0.252
1679064172360845656,0.265
1679064172368542114,0.265
1679064172376238572,0.263
1679064172383935030,0.294
1679064172391631488,0.342
1679064172399327946,0.338
1679064172407024404,0.354
1679064172414720862,0.319
1679064172422417320,-0.002
1679064172430113778,-0.233
1679064172437810236,0.135
1679064172445506694,0.53
1679064172453203152,0.47800000000000004
1679064172460899610,0.41300000000000003
1679064172468596068,0.325
1679064172476292526,0.014
1679064172483988984,-0.02
1679064172491685442,0.29
1679064172499381900,0.321
1679064172507078358,0.177
1679064172514774816,0.221
1679064172522471274,0.154
1679064172530167732,-0.02
1679064172537864190,0.068
1679064172545560648,0.233
1679064172553257106,0.177
1679064172560953564,0.093
1679064172568650022,0.1
1679064172576346480,0.083
1679064172584042938,0.058
1679064172591739396,0.079
1679064172599435854,0.079
1679064172607132312,0.039
1679064172614828770,0.045
1679064172622525228,0.083
1679064172630221718,0.006,81
1679064172637918594,-0.198
1679064172645615470,-0.371
1679064172653312346,-0.446
1679064172661009222,-0.503
1679064172668706098,-0.542
1679064172676402974,-0.561
1679064172684099850,-0.5690000000000001
1679064172691796726,-0.517
1679064172699493602,-0.392
1679064172707190478,-0.217
1679064172714887354,-0.064
1679064172722584230,-0.006
1679064172730281106,-0.006
1679064172737977982,-0.006
1679064172745674858,-0.008
1679064172753371734,-0.018000000000000002
1679064172761068610,-0.018000000000000002
1679064172768765486,-0.002
1679064172776462362,0.016
1679064172784159238,0.035
1679064172791856114,0.06
1679064172799552990,0.081
1679064172807249866,0.085
1679064172814946742,0.08700000000000001
1679064172822643618,0.1,,705
1679064172830340494,0.125
1679064172838037370,0.129
1679064172845734246,0.089
1679064172853431122,0.048
1679064172861127998,0.05
1679064172868824874,0.058
1679064172876521750,0.048
1679064172884218626,0.043000000000000003
1679064172891915502,0.025
1679064172899612378,-0.064
1679064172907309254,-0.20800000000000002
1679064172915006130,-0.329
1679064172922703006,-0.394
1679064172930399882,-0.41100000000000003
1679064172938096758,-0.41100000000000003
1679064172945793634,-0.381
1679064172953490510,-0.331
1679064172961187386,-0.298
1679064172968884262,-0.263
1679064172976581138,-0.202
1679064172984278014,-0.156
1679064172991974890,-0.154
1679064172999671766,-0.17500000000000002
1679064173007368642,-0.183
1679064173015065518,-0.192
1679064173022762394,-0.223
1679064173030459270,-0.229
1679064173038156146,-0.192
1679064173045853022,-0.164
1679064173053549898,-0.152
1679064173061246774,-0.11
1679064173068943650,-0.056
1679064173076640526,-0.035
1679064173084337402,-0.039
1679064173092034278,0.02
1679064173099731154,0.294
1679064173107428030,0.8200000000000001
1679064173115124906,1.2750000000000001
1679064173122821782,0.981
1679064173130518658,-0.081
1679064173138215534,-0.645
1679064173145912410,-0.21
1679064173153609286,0.108
1679064173161306162,-0.037
1679064173169003038,-0.066
1679064173176699914,0.0
1679064173184396790,-0.037
1679064173192093702,-0.058
1679064173199790648,-0.008
1679064173207487594,0.018000000000000002
1679064173215184540,0.012
1679064173222881486,0.006
1679064173230578432,-0.025
1679064173238275378,-0.06
1679064173245972324,-0.041
1679064173253669270,-0.008
1679064173261366216,-0.018000000000000002
1679064173269063162,-0.022
1679064173276760108,0.02
1679064173284457054,0.064
1679064173292154000,0.10200000000000001
1679064173299850946,0.148
1679064173307547892,0.20600000000000002
1679064173315244838,0.265
1679064173322941784,0.281
1679064173330638730,0.252
1679064173338335676,0.185
1679064173346032622,0.066
1679064173353729568,-0.043000000000000003
1679064173361426514,-0.096
1679064173369123460,-0.127
1679064173376820406,-0.162
1679064173384517352,-0.181
1679064173392214298,-0.194
1679064173399911244,-0.229
1679064173407608190,-0.281
1679064173415305136,-0.311
1679064173423002082,-0.308
1679064173430699028,-0.302
1679064173438395974,-0.311
1679064173446092920,-0.321
1679064173453789866,-0.302
1679064173461486812,-0.267
1679064173469183758,-0.25
1679064173476880704,-0.23500000000000001
1679064173484577650,-0.202
1679064173492274596,-0.20600000000000002
1679064173499971542,-0.263
1679064173507668488,-0.281
1679064173515365434,-0.23700000000000002
1679064173523062380,-0.202
1679064173530759326,-0.202
1679064173538456272,-0.196
1679064173546153218,-0.166
1679064173553850164,-0.137
1679064173561547110,-0.123
1679064173569244056,-0.10200000000000001
1679064173576941002,-0.073
1679064173584637948,-0.085,,758
1679064173592334894,-0.121
1679064173600031840,-0.10400000000000001
1679064173607728786,-0.064
1679064173615425732,-0.052000000000000005
1679064173623122678,-0.052000000000000005
1679064173630819624,-0.035
1679064173638516570,-0.01
1679064173646213516,0.006
1679064173653910462,0.018000000000000002
1679064173661607408,0.033
1679064173669304354,0.043000000000000003
1679064173677001300,0.041
1679064173684698246,0.041
1679064173692395192,0.077
1679064173700092138,0.116
1679064173707789084,0.131
1679064173715486030,0.137
1679064173723182976,0.148
1679064173730879922,0.162
1679064173738576868,0.17300000000000001
1679064173746273814,0.185
1679064173753970774,0.21,81
1679064173761667720,0.24
1679064173769364666,0.265
1679064173777061612,0.29
1679064173784758558,0.3
1679064173792455504,0.292
1679064173800152450,0.28300000000000003
1679064173807849396,0.298
1679064173815546342,0.319
1679064173823243288,0.311
1679064173830940234,0.311
1679064173838637180,0.325
1679064173846334126,0.311
1679064173854031072,0.273
1679064173861728018,0.242
1679064173869424964,0.233
1679064173877121910,0.265
1679064173884818856,0.298
1679064173892515802,0.3
1679064173900212748,0.323
1679064173907909694,0.394
1679064173915606640,0.423
1679064173923303586,0.375
1679064173931000532,0.352
1679064173938697478,0.342
1679064173946394424,0.271
1679064173954091370,0.20800000000000002
1679064173961788316,0.217
1679064173969485262,0.233
1679064173977182208,0.219
1679064173984879154,0.21
1679064173992576100,0.212
1679064174000273046,0.179
1679064174007969992,0.171
1679064174015666938,0.438
1679064174023363884,1.01
1679064174031060830,1.369
1679064174038757776,0.8320000000000001
1679064174046454722,-0.256
1679064174054151668,-0.546
1679064174061848614,-0.033
1679064174069545560,0.116
1679064174077242506,-0.068
1679064174084939452,-0.06
1679064174092636398,-0.022
1679064174100333344,-0.096
1679064174108030290,-0.114
1679064174115727236,-0.081
1679064174123424182,-0.108
1679064174131121128,-0.146
1679064174138818074,-0.14100000000000001
1679064174146515020,-0.131
1679064174154211966,-0.125
1679064174161908912,-0.116
1679064174169605858,-0.1
1679064174177302804,-0.075
1679064174184999750,-0.064
1679064174192696696,-0.058
1679064174200393642,-0.027
1679064174208090588,0.012
1679064174215787534,0.035
1679064174223484480,0.041
1679064174231181426,0.06
1679064174238878372,0.096
1679064174246575318,0.121
1679064174254272264,0.139
1679064174261969210,0.164
1679064174269666156,0.187
1679064174277363102,0.183
1679064174285060048,0.171
1679064174292756994,0.17500000000000002
1679064174300453940,0.183
1679064174308150886,0.164
1679064174315847844,0.129
1679064174323544581,0.077
1679064174331241318,0.004
1679064174338938055,-0.043000000000000003
1679064174346634792,-0.05
1679064174354331529,-0.048
1679064174362028266,-0.077
1679064174369725003,-0.164
1679064174377421740,-0.244
1679064174385118477,-0.258
1679064174392815214,-0.265
1679064174400511951,-0.271
1679064174408208688,-0.28800000000000003
1679064174415905425,-0.311
1679064174423602162,-0.275
1679064174431298899,-0.248
1679064174438995636,-0.263,,854
1679064174446692373,-0.227
1679064174454389110,-0.183
1679064174462085847,-0.198
1679064174469782584,-0.194
1679064174477479321,-0.14100000000000001
1679064174485176058,-0.116
1679064174492872795,-0.125
1679064174500569532,-0.112
1679064174508266269,-0.10400000000000001
1679064174515963006,-0.164
1679064174523659743,-0.23500000000000001
1679064174531356480,-0.215
1679064174539053217,-0.152
1679064174546749954,-0.135
1679064174554446691,-0.156
1679064174562143428,-0.15
1679064174569840165,-0.131
1679064174577536902,-0.162
1679064174585233639,-0.185
1679064174592930376,-0.146
1679064174600627113,-0.123
1679064174608323850,-0.133
1679064174616020587,-0.123
1679064174623717324,-0.08700000000000001
1679064174631414061,-0.06
1679064174639110798,-0.058
1679064174646807535,-0.062
1679064174654504272,-0.045
1679064174662201009,-0.014
1679064174669897746,0.002
1679064174677594483,0.014
1679064174685291220,0.041
1679064174692987957,0.043000000000000003
1679064174700684694,0.027
1679064174708381431,0.045
1679064174716078168,0.083
1679064174723774905,0.098
1679064174731471642,0.098
1679064174739168379,0.096
1679064174746865116,0.108
1679064174754561853,0.129
1679064174762258590,0.139
1679064174769955327,0.156
1679064174777652064,0.177
1679064174785348801,0.169
1679064174793045538,0.129
1679064174800742275,0.093
1679064174808439012,0.10200000000000001
1679064174816135749,0.108
1679064174823832486,0.091
1679064174831529223,0.106
1679064174839225960,0.137
1679064174846922697,0.11800000000000001
1679064174854619434,0.085
1679064174862316171,0.08700000000000001
1679064174870012908,0.085
1679064174877709656,0.056,80
1679064174885406532,0.045
1679064174893103408,0.066
1679064174900800284,0.07
1679064174908497160,0.068
1679064174916194036,0.077
1679064174923890912,0.068
1679064174931587788,0.085
1679064174939284664,0.29
1679064174946981540,0.757
1679064174954678416,1.202
1679064174962375292,0.9390000000000001
1679064174970072168,-0.15
1679064174977769044,-0.834
1679064174985465920,-0.46900000000000003
1679064174993162796,-0.123
1679064175000859672,-0.267
1679064175008556548,-0.336
1679064175016253424,-0.313
1679064175023950300,-0.388
1679064175031647176,-0.404
1679064175039344052,-0.34600000000000003
1679064175047040928,-0.321
1679064175054737804,-0.319
1679064175062434680,-0.323
1679064175070131556,-0.342
1679064175077828432,-0.338
1679064175085525308,-0.308
1679064175093222184,-0.28300000000000003
1679064175100919060,-0.254
1679064175108615936,-0.212
1679064175116312812,-0.179
1679064175124009688,-0.158
1679064175131706564,-0.1
1679064175139403440,-0.022
1679064175147100316,-0.012
1679064175154797192,-0.022
1679064175162494068,0.027
1679064175170190944,0.10200000000000001
1679064175177887820,0.162
1679064175185584696,0.244
1679064175193281572,0.319
1679064175200978448,0.333
1679064175208675324,0.331
1679064175216372200,0.379
1679064175224069076,0.436
1679064175231765952,0.417
1679064175239462828,0.342
1679064175247159704,0.294
1679064175254856580,0.304,,817
1679064175262553456,0.327
1679064175270250332,0.333
1679064175277947208,0.325
1679064175285644084,0.3
1679064175293340960,0.277
1679064175301037836,0.263
1679064175308734712,0.244
1679064175316431588,0.219
1679064175324128464,0.215
1679064175331825340,0.219
1679064175339522216,0.198
1679064175347219092,0.177
1679064175354915968,0.158
1679064175362612844,0.108
1679064175370309720,0.022
1679064175378006596,-0.02
1679064175385703472,0.073
1679064175393400348,0.2
1679064175401097224,0.231
1679064175408794100,0.256
1679064175416490976,0.294
1679064175424187852,0.252
1679064175431884728,0.20400000000000001
1679064175439581640,0.212,79
1679064175447278516,0.21
1679064175454975392,0.20400000000000001
1679064175462672268,0.223
1679064175470369144,0.20800000000000002
1679064175478066020,0.154
1679064175485762896,0.116
1679064175493459772,0.123
1679064175501156648,0.14100000000000001
1679064175508853524,0.135
1679064175516550400,0.11
1679064175524247276,0.035
1679064175531944152,-0.1
1679064175539641028,-0.21
1679064175547337904,-0.23700000000000002
1679064175555034780,-0.248
1679064175562731656,-0.306
1679064175570428532,-0.342
1679064175578125408,-0.302
1679064175585822284,-0.252
1679064175593519160,-0.227
1679064175601216036,-0.20600000000000002
1679064175608912912,-0.194
1679064175616609788,-0.189
1679064175624306664,-0.171
1679064175632003540,-0.137
1679064175639700416,-0.1
1679064175647397292,-0.052000000000000005
1679064175655094168,-0.012
1679064175662791044,-0.01
1679064175670487920,-0.01
1679064175678184796,0.027
1679064175685881672,0.056
1679064175693578548,0.056
1679064175701275424,0.089
1679064175708972300,0.196
1679064175716669176,0.321
1679064175724366052,0.367
1679064175732062928,0.367
1679064175739759804,0.388
1679064175747456680,0.34
1679064175755153556,0.123
1679064175762850432,-0.10400000000000001
1679064175770547308,-0.227
1679064175778244184,-0.352
1679064175785941060,-0.386
1679064175793637936,-0.273
1679064175801334812,-0.177
1679064175809031688,-0.217
1679064175816728564,-0.371
1679064175824425440,-0.40700000000000003
1679064175832122316,-0.202
1679064175839819192,0.21
1679064175847516068,0.705
1679064175855212944,0.724
1679064175862909820,-0.114
1679064175870606696,-0.849
1679064175878303572,-0.594
1679064175886000448,-0.152
1679064175893697324,-0.166
1679064175901394200,-0.2
1679064175909091076,-0.073
1679064175916787952,-0.02
1679064175924484828,-0.045
1679064175932181704,-0.006
1679064175939878580,0.054
1679064175947575456,0.068
1679064175955272332,0.085
1679064175962969208,0.108
1679064175970666084,0.123
1679064175978362960,0.135
1679064175986059836,0.146
1679064175993756712,0.17300000000000001
1679064176001453624,0.223
1679064176009150082,0.325
1679064176016846540,0.46900000000000003
1679064176024542998,0.49
1679064176032239456,0.377
1679064176039935914,0.329
1679064176047632372,0.34800000000000003
1679064176055328830,0.325
1679064176063025288,0.313
1679064176070721746,0.34
1679064176078418204,0.298
1679064176086114662,0.221
1679064176093811120,0.219
1679064176101507578,0.252
1679064176109204036,0.23500000000000001
1679064176116900494,0.20800000000000002,,864
1679064176124596952,0.196
1679064176132293410,0.162
1679064176139989868,0.106
1679064176147686326,0.06
1679064176155382784,0.045
1679064176163079242,0.033
1679064176170775700,-0.002
1679064176178472158,-0.018000000000000002
1679064176186168616,0.006
1679064176193865074,0.027
1679064176201561532,0.031
1679064176209257990,0.043000000000000003
1679064176216954448,0.064
1679064176224650906,0.077
1679064176232347364,0.08700000000000001
1679064176240043822,0.11
1679064176247740280,0.14400000000000002
1679064176255436738,0.158
1679064176263133196,0.146
1679064176270829654,0.146
1679064176278526112,0.17300000000000001
1679064176286222570,0.194
1679064176293919028,0.187
1679064176301615486,0.158
1679064176309311944,0.14100000000000001
1679064176317008402,0.146
1679064176324704860,0.148
1679064176332401318,0.152
1679064176340097776,0.171
1679064176347794234,0.177
1679064176355490692,0.16
1679064176363187150,0.162
1679064176370883608,0.183
1679064176378580066,0.192
1679064176386276524,0.194
1679064176393972982,0.20600000000000002
1679064176401669440,0.20400000000000001
1679064176409365898,0.189
1679064176417062356,0.196
1679064176424758814,0.223
1679064176432455272,0.244
1679064176440151730,0.242
1679064176447848188,0.229
1679064176455544646,0.23500000000000001
1679064176463241104,0.258
1679064176470937562,0.252
1679064176478634020,0.219
1679064176486330478,0.2
1679064176494026936,0.194
1679064176501723394,0.17500000000000002
1679064176509419852,0.171
1679064176517116310,0.192
1679064176524812768,0.189
1679064176532509226,0.125
1679064176540205684,0.025
1679064176547902142,-0.033
1679064176555598600,-0.039
1679064176563295090,-0.048,79
1679064176570991966,-0.043000000000000003
1679064176578688842,-0.029
1679064176586385718,-0.068
1679064176594082594,-0.137
1679064176601779470,-0.146
1679064176609476346,-0.121
1679064176617173222,-0.10200000000000001
1679064176624870098,-0.081
1679064176632566974,-0.079
1679064176640263850,-0.089
1679064176647960726,-0.11
1679064176655657602,-0.169
1679064176663354478,-0.223
1679064176671051354,-0.221
1679064176678748230,-0.217
1679064176686445106,-0.233
1679064176694141982,-0.215
1679064176701838858,-0.183
1679064176709535734,-0.185
1679064176717232610,-0.20800000000000002
1679064176724929486,-0.164
1679064176732626362,0.112
1679064176740323238,0.651
1679064176748020114,1.093
1679064176755716990,0.809
1679064176763413866,-0.20800000000000002
1679064176771110742,-0.766
1679064176778807618,-0.369
1679064176786504494,-0.077
1679064176794201370,-0.244
1679064176801898246,-0.273
1679064176809595122,-0.166
1679064176817291998,-0.177
1679064176824988874,-0.192
1679064176832685750,-0.14100000000000001
1679064176840382626,-0.11
1679064176848079502,-0.085
1679064176855776378,-0.054
1679064176863473254,-0.048
1679064176871170130,-0.037
1679064176878867006,-0.002
1679064176886563882,0.029
1679064176894260758,0.041
1679064176901957634,0.06
1679064176909654510,0.085
1679064176917351386,0.10200000000000001
1679064176925048262,0.127
1679064176932745138,0.169
1679064176940442014,0.20600000000000002
1679064176948138890,0.225
1679064176955835766,0.231
1679064176963532642,0.25
1679064176971229518,0.28300000000000003
1679064176978926394,0.3
1679064176986623270,0.304
1679064176994320146,0.317
1679064177002017022,0.317
1679064177009713898,0.292
1679064177017410774,0.267
1679064177025107650,0.25
1679064177032804526,0.194,,914
1679064177040501402,0.052000000000000005
1679064177048198278,-0.098
1679064177055895154,-0.139
1679064177063592030,-0.131
1679064177071288906,-0.152
1679064177078985782,-0.156
1679064177086682658,-0.127
1679064177094379534,-0.11800000000000001
1679064177102076410,-0.127
1679064177109773286,-0.108
1679064177117470162,-0.073
1679064177125167076,-0.052000000000000005
1679064177132863952,-0.045
1679064177140560828,-0.035
1679064177148257704,-0.004
1679064177155954580,0.022
1679064177163651456,0.031
1679064177171348332,0.052000000000000005
1679064177179045208,0.077
1679064177186742084,0.039
1679064177194438960,-0.031
1679064177202135836,-0.037
1679064177209832712,0.0
1679064177217529588,0.004
1679064177225226464,-0.01
1679064177232923340,-0.006
1679064177240620216,0.01
1679064177248317092,0.016
1679064177256013968,0.018000000000000002
1679064177263710844,0.037
1679064177271407720,0.058
1679064177279104596,0.041
1679064177286801472,0.006
1679064177294498348,0.008
1679064177302195224,0.043000000000000003
1679064177309892100,0.056
1679064177317588976,0.048
1679064177325285852,0.052000000000000005
1679064177332982728,0.045
1679064177340679604,-0.022
1679064177348376480,-0.125
1679064177356073356,-0.169
1679064177363770232,-0.131
1679064177371467108,-0.033
1679064177379163984,0.10200000000000001
1679064177386860860,0.17500000000000002
1679064177394557736,0.14400000000000002
1679064177402254612,0.106
1679064177409951488,0.11
1679064177417648364,0.108
1679064177425345240,0.093
1679064177433042116,0.079
1679064177440738992,0.068
1679064177448435868,0.054
1679064177456132744,-0.01
1679064177463829620,-0.14100000000000001
1679064177471526496,-0.233
1679064177479223372,-0.20800000000000002
1679064177486920248,-0.162
1679064177494617124,-0.14400000000000002
1679064177502314000,-0.05
1679064177510010876,0.146
1679064177517707752,0.267
1679064177525404628,0.212
1679064177533101504,0.14100000000000001
1679064177540798380,0.121
1679064177548495256,0.027
1679064177556192132,-0.066
1679064177563889008,-0.058
1679064177571585884,-0.073
1679064177579282760,-0.171
1679064177586979636,-0.20800000000000002
1679064177594676512,-0.177
1679064177602373388,-0.189
1679064177610070264,-0.221
1679064177617767140,-0.20600000000000002
1679064177625464016,-0.17500000000000002
1679064177633160892,-0.162
1679064177640857768,-0.177
1679064177648554644,-0.139
1679064177656251520,0.139
1679064177663948396,0.686
1679064177671645272,1.116
1679064177679342148,0.803
1679064177687039060,-0.215,76
1679064177694735518,-0.743
1679064177702431976,-0.342
1679064177710128434,-0.041
1679064177717824892,-0.154
1679064177725521350,-0.158
1679064177733217808,-0.073
1679064177740914266,-0.08700000000000001
1679064177748610724,-0.089
1679064177756307182,-0.07
1679064177764003640,-0.121
1679064177771700098,-0.166
1679064177779396556,-0.17300000000000001
1679064177787093014,-0.192
1679064177794789472,-0.194
1679064177802485930,-0.154
1679064177810182388,-0.11
1679064177817878846,-0.093
1679064177825575304,-0.083
1679064177833271762,-0.064
1679064177840968220,-0.035
1679064177848664678,-0.01
1679064177856361136,0.01
1679064177864057594,0.045
1679064177871754052,0.079
1679064177879450510,0.081
1679064177887146968,0.089
1679064177894843426,0.135
1679064177902539884,0.179
1679064177910236342,0.202
1679064177917932800,0.219
1679064177925629258,0.223
1679064177933325716,0.219
1679064177941022174,0.217
1679064177948718632,0.20600000000000002
1679064177956415090,0.185,,926
1679064177964111548,0.15
1679064177971808006,0.091
1679064177979504464,0.05
1679064177987200922,0.054
1679064177994897380,0.064
1679064178002593838,0.054
1679064178010290296,0.043000000000000003
1679064178017986754,0.025
1679064178025683212,-0.018000000000000002
1679064178033379670,-0.041
1679064178041076128,-0.025
1679064178048772586,-0.039
1679064178056469044,-0.116
1679064178064165502,-0.169
1679064178071861960,-0.146
1679064178079558418,-0.114
1679064178087254876,-0.108
1679064178094951334,-0.093
1679064178102647792,-0.066
1679064178110344250,-0.05
1679064178118040708,-0.045
1679064178125737166,-0.033
1679064178133433624,-0.004
1679064178141130082,0.02
1679064178148826540,0.02
1679064178156522998,0.01
1679064178164219456,0.025
1679064178171915914,0.05
1679064178179612372,0.056
1679064178187308830,0.06
1679064178195005288,0.079
1679064178202701746,0.08700000000000001
1679064178210398204,0.081
1679064178218094662,0.091
1679064178225791120,0.121
1679064178233487578,0.14400000000000002
1679064178241184036,0.139
1679064178248880526,0.129
1679064178256577402,0.139
1679064178264274278,0.14100000000000001
1679064178271971154,0.112
1679064178279668030,0.106
1679064178287364906,0.129
1679064178295061782,0.10400000000000001
1679064178302758658,0.035
1679064178310455534,0.002
1679064178318152410,-0.004
1679064178325849286,-0.031
1679064178333546162,-0.052000000000000005
1679064178341243038,-0.05
1679064178348939914,-0.045
1679064178356636790,-0.043000000000000003
1679064178364333666,-0.041
1679064178372030542,-0.029
1679064178379727418,-0.01
1679064178387424294,-0.01
1679064178395121170,-0.018000000000000002
1679064178402818046,0.0
1679064178410514922,0.029
1679064178418211798,0.037
1679064178425908674,0.033
1679064178433605550,0.037
1679064178441302426,0.05
1679064178448999302,0.06
1679064178456696178,0.073
1679064178464393054,0.106
1679064178472089930,0.129
1679064178479786806,0.10200000000000001
1679064178487483682,0.041
1679064178495180558,-0.106
1679064178502877434,-0.331
1679064178510574310,-0.444
1679064178518271186,-0.432
1679064178525968062,-0.436
1679064178533664938,-0.438
1679064178541361814,-0.41500000000000004
1679064178549058690,-0.41300000000000003
1679064178556755566,-0.427
1679064178564452442,-0.325
1679064178572149318,-0.029
1679064178579846194,0.384
1679064178587543070,0.882
1679064178595239946,1.229
1679064178602936822,0.77
1679064178610633698,-0.28500000000000003
1679064178618330574,-0.615
1679064178626027450,-0.148
1679064178633724326,0.025
1679064178641421202,-0.098
1679064178649118078,-0.045
1679064178656814954,0.004
1679064178664511830,-0.066
1679064178672208706,-0.05
1679064178679905582,0.033
1679064178687602458,0.048
1679064178695299334,0.048
1679064178702996210,0.106
1679064178710693086,0.158
1679064178718389962,0.166
1679064178726086838,0.137
1679064178733783714,0.10200000000000001
1679064178741480590,0.148
1679064178749177466,0.26
1679064178756874342,0.292
1679064178764571218,0.242
1679064178772268094,0.23500000000000001
1679064178779964970,0.258
1679064178787661846,0.263
1679064178795358722,0.281
1679064178803055598,0.306
1679064178810752510,0.306,75
1679064178818449316,0.308
1679064178826146122,0.342
1679064178833842928,0.369
1679064178841539734,0.354
1679064178849236540,0.329
1679064178856933346,0.26,,895
1679064178864630152,0.089
1679064178872326958,-0.093
1679064178880023764,-0.254
1679064178887720570,-0.40700000000000003
1679064178895417376,-0.434
1679064178903114182,-0.331
1679064178910810988,-0.183
1679064178918507794,-0.043000000000000003
1679064178926204600,0.027
1679064178933901406,0.041
1679064178941598212,-0.029
1679064178949295018,-0.11800000000000001
1679064178956991824,-0.148
1679064178964688630,-0.273
1679064178972385436,-0.442
1679064178980082242,-0.404
1679064178987779048,-0.28800000000000003
1679064178995475854,-0.277
1679064179003172660,-0.29
1679064179010869466,-0.3
1679064179018566272,-0.315
1679064179026263078,-0.304
1679064179033959884,-0.281
1679064179041656690,-0.256
1679064179049353496,-0.24
1679064179057050302,-0.263
1679064179064747108,-0.267
1679064179072443914,-0.192
1679064179080140720,-0.137
1679064179087837526,-0.16
1679064179095534332,-0.169
1679064179103231138,-0.152
1679064179110927944,-0.16
1679064179118624750,-0.166
1679064179126321556,-0.152
1679064179134018362,-0.15
1679064179141715168,-0.148
1679064179149411974,-0.125
1679064179157108780,-0.091
1679064179164805586,-0.079
1679064179172502392,-0.06
1679064179180199198,0.081
1679064179187896004,0.342
1679064179195592810,0.511
1679064179203289616,0.5
1679064179210986422,0.396
1679064179218683228,0.323
1679064179226380034,0.298
1679064179234076840,0.179
1679064179241773646,0.045
1679064179249470452,0.164
1679064179257167258,0.39
1679064179264864064,0.381
1679064179272560870,0.269
1679064179280257676,0.3
1679064179287954482,0.336
1679064179295651288,0.292
1679064179303348094,0.28500000000000003
1679064179311044900,0.304
1679064179318741706,0.292
1679064179326438512,0.273
1679064179334135318,0.28500000000000003
1679064179341832124,0.323
1679064179349528930,0.35000000000000003
1679064179357225736,0.352
1679064179364922542,0.35000000000000003
1679064179372619406,0.317
1679064179380315934,0.233
1679064179388012462,0.17500000000000002
1679064179395708990,0.148
1679064179403405518,0.098
1679064179411102046,0.022
1679064179418798574,-0.018000000000000002
1679064179426495102,-0.014
1679064179434191630,-0.018000000000000002
1679064179441888158,-0.048
1679064179449584686,-0.014
1679064179457281214,0.244
1679064179464977742,0.749
1679064179472674270,1.1520000000000001
1679064179480370798,0.847
1679064179488067326,-0.131
1679064179495763854,-0.672
1679064179503460382,-0.34800000000000003
1679064179511156910,-0.052000000000000005
1679064179518853438,-0.112
1679064179526549966,-0.127
1679064179534246494,-0.066
1679064179541943022,-0.066
1679064179549639550,-0.068
1679064179557336078,-0.083
1679064179565032606,-0.137
1679064179572729134,-0.139
1679064179580425662,-0.137
1679064179588122190,-0.298
1679064179595818718,-0.532
1679064179603515246,-0.58
1679064179611211774,-0.498
1679064179618908302,-0.47100000000000003
1679064179626604830,-0.45
1679064179634301358,-0.373
1679064179641997886,-0.28500000000000003
1679064179649694414,-0.196
1679064179657390942,-0.10200000000000001
1679064179665087470,-0.039
1679064179672783998,-0.073
1679064179680480526,-0.152
1679064179688177054,-0.10400000000000001
1679064179695873582,0.052000000000000005
1679064179703570110,0.179
1679064179711266638,0.325
1679064179718963166,0.526
1679064179726659694,0.63
1679064179734356222,0.599
1679064179742052750,0.551
1679064179749749278,0.494,,898
1679064179757445806,0.41300000000000003
1679064179765142334,0.34800000000000003
1679064179772838862,0.28800000000000003
1679064179780535390,0.227
1679064179788231918,0.21
1679064179795928446,0.212
1679064179803624974,0.198
1679064179811321502,0.196
1679064179819018030,0.20400000000000001
1679064179826714558,0.2
1679064179834411086,0.192
1679064179842107614,0.20400000000000001
1679064179849804142,0.227
1679064179857500670,0.23500000000000001
1679064179865197198,0.227
1679064179872893726,0.233
1679064179880590254,0.26
1679064179888286782,0.275
1679064179895983310,0.275
1679064179903679838,0.28300000000000003
1679064179911376366,0.28800000000000003
1679064179919072894,0.279
1679064179926769422,0.277
1679064179934465960,0.294,74
1679064179942162836,0.308
1679064179949859712,0.302
1679064179957556588,0.279
1679064179965253464,0.275
1679064179972950340,0.277
1679064179980647216,0.231
1679064179988344092,0.152
1679064179996040968,0.10400000000000001
1679064180003737844,0.077
1679064180011434720,0.041
1679064180019131596,0.033
1679064180026828472,0.058
1679064180034525348,0.068
1679064180042222224,0.058
1679064180049919100,0.052000000000000005
1679064180057615976,0.058
1679064180065312852,0.016
1679064180073009728,-0.056
1679064180080706604,-0.064
1679064180088403480,-0.033
1679064180096100356,-0.045
1679064180103797232,-0.077
1679064180111494108,-0.085
1679064180119190984,-0.085
1679064180126887860,-0.083
1679064180134584736,-0.085
1679064180142281612,-0.091
1679064180149978488,-0.085
1679064180157675364,-0.075
1679064180165372240,-0.068
1679064180173069116,-0.05
1679064180180765992,-0.031
1679064180188462868,-0.039
1679064180196159744,-0.048
1679064180203856620,-0.022
1679064180211553496,0.006
1679064180219250372,0.012
1679064180226947248,0.006
1679064180234644124,-0.016
1679064180242341000,-0.054
1679064180250037876,-0.073
1679064180257734752,-0.056
1679064180265431628,-0.035
1679064180273128504,-0.041
1679064180280825380,-0.068
1679064180288522256,-0.089
1679064180296219132,-0.11
1679064180303916008,-0.152
1679064180311612884,-0.187
1679064180319309760,-0.185
1679064180327006636,-0.177
1679064180334703512,-0.181
1679064180342400388,-0.179
1679064180350097264,-0.158
1679064180357794140,-0.131
1679064180365491016,-0.139
1679064180373187892,-0.133
1679064180380884768,0.10200000000000001
1679064180388581644,0.645
1679064180396278520,1.141
1679064180403975396,0.9490000000000001
1679064180411672272,-0.045
1679064180419369148,-0.718
1679064180427066024,-0.381
1679064180434762900,-0.02
1679064180442459776,-0.127
1679064180450156652,-0.14400000000000002
1679064180457853528,-0.035
1679064180465550404,-0.048
1679064180473247280,-0.052000000000000005
1679064180480944156,-0.01
1679064180488641032,-0.039
1679064180496337946,-0.066,74
1679064180504034543,-0.033
1679064180511731140,-0.02
1679064180519427737,-0.035
1679064180527124334,-0.018000000000000002
1679064180534820931,0.022
1679064180542517528,0.054
1679064180550214125,0.062
1679064180557910722,0.054
1679064180565607319,0.025
1679064180573303916,-0.033
1679064180581000513,-0.081
1679064180588697110,-0.079
1679064180596393707,-0.05
1679064180604090304,-0.037
1679064180611786901,-0.031
1679064180619483498,0.002
1679064180627180095,0.05
1679064180634876692,0.079
1679064180642573289,0.08700000000000001
1679064180650269886,0.096
1679064180657966483,0.114
1679064180665663080,0.11800000000000001
1679064180673359677,0.093,,923
1679064180681056274,0.064
1679064180688752871,0.033
1679064180696449468,-0.02
1679064180704146065,-0.068
1679064180711842662,-0.07
1679064180719539259,-0.054
1679064180727235856,-0.066
1679064180734932453,-0.1
1679064180742629050,-0.106
1679064180750325647,-0.08700000000000001
1679064180758022244,-0.077
1679064180765718841,-0.073
1679064180773415438,-0.045
1679064180781112035,-0.022
1679064180788808632,-0.029
1679064180796505229,-0.018000000000000002
1679064180804201826,0.025
1679064180811898423,0.043000000000000003
1679064180819595020,0.043000000000000003
1679064180827291617,0.054
1679064180834988214,0.068
1679064180842684811,0.077
1679064180850381408,0.077
1679064180858078005,0.089
1679064180865774602,0.11800000000000001
1679064180873471199,0.127
1679064180881167796,0.121
1679064180888864393,0.129
1679064180896560990,0.148
1679064180904257587,0.15
1679064180911954184,0.148
1679064180919650781,0.169
1679064180927347378,0.196
1679064180935043975,0.196
1679064180942740572,0.185
1679064180950437169,0.189
1679064180958133766,0.198
1679064180965830363,0.202
1679064180973526960,0.192
1679064180981223557,0.164
1679064180988920154,0.169
1679064180996616751,0.187
1679064181004313348,0.181
1679064181012009945,0.179
1679064181019706542,0.181
1679064181027403139,0.154
1679064181035099736,0.106
1679064181042796333,0.091
1679064181050492930,0.10200000000000001
1679064181058189584,0.089
1679064181065886530,0.062
1679064181073583476,0.039
1679064181081280422,-0.016
1679064181088977368,-0.07
1679064181096674314,-0.064
1679064181104371260,-0.045
1679064181112068206,-0.064
1679064181119765152,-0.123
1679064181127462098,-0.169
1679064181135159044,-0.152
1679064181142855990,-0.123
1679064181150552936,-0.131
1679064181158249882,-0.133
1679064181165946828,-0.10200000000000001
1679064181173643774,-0.079
1679064181181340720,-0.083
1679064181189037666,-0.089
1679064181196734612,-0.1
1679064181204431558,-0.112
1679064181212128504,-0.129
1679064181219825450,-0.166
1679064181227522396,-0.20800000000000002
1679064181235219342,-0.23700000000000002
1679064181242916288,-0.265
1679064181250613234,-0.279
1679064181258310180,-0.277
1679064181266007126,-0.277
1679064181273704072,-0.269
1679064181281401018,-0.248
1679064181289097964,-0.223
1679064181296794910,-0.219
1679064181304491856,-0.20600000000000002
1679064181312188802,-0.091
1679064181319885748,0.263
1679064181327582694,0.791
1679064181335279640,0.997
1679064181342976586,0.306
1679064181350673532,-0.638
1679064181358370478,-0.578
1679064181366067424,-0.033
1679064181373764370,0.014
1679064181381461316,-0.064
1679064181389158262,0.014
1679064181396855208,0.033
1679064181404552154,0.041
1679064181412249100,0.116
1679064181419946046,0.14400000000000002
1679064181427642992,0.129
1679064181435339938,0.146
1679064181443036884,0.17300000000000001
1679064181450733830,0.179
1679064181458430776,0.181
1679064181466127722,0.162
1679064181473824668,0.079
1679064181481521614,0.01
1679064181489218560,0.06
1679064181496915506,0.137
1679064181504612452,0.139
1679064181512309398,0.129
1679064181520006344,0.15
1679064181527703290,0.16
1679064181535400236,0.169
1679064181543097182,0.194
1679064181550794128,0.231
1679064181558491074,0.267
1679064181566188020,0.28500000000000003
1679064181573884966,0.271
1679064181581581912,0.221
1679064181589278858,0.164
1679064181596975804,0.14100000000000001,,922
1679064181604672750,0.133
1679064181612369696,0.093
1679064181620066654,0.027,73
1679064181627763321,-0.031
1679064181635459988,-0.07
1679064181643156655,-0.083
1679064181650853322,-0.081
1679064181658549989,-0.10400000000000001
1679064181666246656,-0.139
1679064181673943323,-0.14400000000000002
1679064181681639990,-0.129
1679064181689336657,-0.146
1679064181697033324,-0.17300000000000001
1679064181704729991,-0.217
1679064181712426658,-0.486
1679064181720123325,-0.849
1679064181727819992,-0.845
1679064181735516659,-0.649
1679064181743213326,-0.636
1679064181750909993,-0.647
1679064181758606660,-0.5630000000000001
1679064181766303327,-0.509
1679064181773999994,-0.488
1679064181781696661,-0.444
1679064181789393328,-0.394
1679064181797089995,-0.356
1679064181804786662,-0.34
1679064181812483329,-0.323
1679064181820179996,-0.28300000000000003
1679064181827876663,-0.24
1679064181835573330,-0.219
1679064181843269997,-0.21
1679064181850966664,-0.198
1679064181858663331,-0.171
1679064181866359998,-0.148
1679064181874056665,-0.137
1679064181881753332,-0.11
1679064181889449999,-0.073
1679064181897146666,-0.068
1679064181904843333,-0.075
1679064181912540000,-0.048
1679064181920236667,-0.01
1679064181927933334,0.002
1679064181935630001,-0.002
1679064181943326668,0.006
1679064181951023335,0.01
1679064181958720002,-0.031
1679064181966416669,-0.079
1679064181974113336,-0.077
1679064181981810003,-0.06
1679064181989506670,-0.079
1679064181997203337,-0.093
1679064182004900004,-0.066
1679064182012596671,-0.045
1679064182020293338,-0.052000000000000005
1679064182027990005,-0.056
1679064182035686672,-0.052000000000000005
1679064182043383339,-0.05
1679064182051080006,-0.043000000000000003
1679064182058776673,-0.025
1679064182066473340,0.002
1679064182074170007,0.018000000000000002
1679064182081866674,-0.014
1679064182089563341,-0.079
1679064182097260008,-0.081
1679064182104956675,0.035
1679064182112653342,0.29
1679064182120350009,0.484
1679064182128046676,0.375
1679064182135743343,0.202
1679064182143440010,0.181
1679064182151136677,0.164
1679064182158833344,0.125
1679064182166530011,0.123
1679064182174226678,0.123
1679064182181923380,0.11800000000000001
1679064182189619838,0.135
1679064182197316296,0.135
1679064182205012754,0.114
1679064182212709212,0.189
1679064182220405670,0.542
1679064182228102128,1.045
1679064182235798586,1.166
1679064182243495044,0.47100000000000003
1679064182251191502,-0.452
1679064182258887960,-0.519
1679064182266584418,-0.06
1679064182274280876,0.045
1679064182281977334,-0.018000000000000002
1679064182289673792,0.045
1679064182297370250,0.10400000000000001
1679064182305066708,0.114
1679064182312763166,0.127
1679064182320459624,0.129
1679064182328156082,0.131
1679064182335852540,0.158
1679064182343548998,0.189
1679064182351245456,0.194
1679064182358941914,0.189
1679064182366638372,0.20800000000000002
1679064182374334830,0.244
1679064182382031288,0.26
1679064182389727746,0.273
1679064182397424204,0.292
1679064182405120662,0.29
1679064182412817120,0.304
1679064182420513578,0.352
1679064182428210036,0.396
1679064182435906494,0.427
1679064182443602952,0.45
1679064182451299410,0.45
1679064182458995868,0.425
1679064182466692326,0.41100000000000003
1679064182474388784,0.40700000000000003,,879
1679064182482085242,0.41500000000000004
1679064182489781700,0.44
1679064182497478158,0.434
1679064182505174616,0.379
1679064182512871074,0.338
1679064182520567532,0.306
1679064182528263990,0.25
1679064182535960448,0.187
1679064182543656906,0.156
1679064182551353364,0.14400000000000002
1679064182559049822,0.133
1679064182566746280,0.127
1679064182574442738,0.125
1679064182582139196,0.08700000000000001
1679064182589835654,-0.01
1679064182597532112,-0.083
1679064182605228570,-0.052000000000000005
1679064182612925028,0.006
1679064182620621486,0.012
1679064182628317944,0.016
1679064182636014402,0.056
1679064182643710860,0.085
1679064182651407318,0.08700000000000001
1679064182659103776,0.096
1679064182666800234,0.112
1679064182674496692,0.114
1679064182682193150,0.091
1679064182689889608,0.081
1679064182697586066,0.073
1679064182705282524,0.037
1679064182712978982,0.037
1679064182720675440,0.093
1679064182728371898,0.114
1679064182736068356,0.096
1679064182743764846,0.1,72
1679064182751461722,0.125
1679064182759158598,0.14100000000000001
1679064182766855474,0.137
1679064182774552350,0.116
1679064182782249226,0.11800000000000001
1679064182789946102,0.139
1679064182797642978,0.11800000000000001
1679064182805339854,0.06
1679064182813036730,0.045
1679064182820733606,0.058
1679064182828430482,0.035
1679064182836127358,-0.002
1679064182843824234,-0.002
1679064182851521110,0.012
1679064182859217986,0.002
1679064182866914862,-0.016
1679064182874611738,-0.01
1679064182882308614,0.004
1679064182890005490,0.008
1679064182897702366,0.014
1679064182905399242,0.029
1679064182913096118,0.031
1679064182920792994,0.018000000000000002
1679064182928489870,0.027
1679064182936186746,0.052000000000000005
1679064182943883622,0.054
1679064182951580498,0.031
1679064182959277374,0.018000000000000002
1679064182966974250,0.033
1679064182974671126,0.05
1679064182982368002,0.052000000000000005
1679064182990064878,0.039
1679064182997761754,0.014
1679064183005458630,-0.027
1679064183013155506,-0.068
1679064183020852382,-0.075
1679064183028549258,-0.043000000000000003
1679064183036246134,-0.029
1679064183043943010,-0.048
1679064183051639886,-0.085
1679064183059336762,-0.114
1679064183067033638,-0.116
1679064183074730514,-0.11
1679064183082427390,-0.14100000000000001
1679064183090124266,-0.215
1679064183097821142,-0.26
1679064183105518018,-0.254
1679064183113214894,-0.24
1679064183120911770,-0.223
1679064183128608646,-0.085
1679064183136305522,0.331
1679064183144002398,0.893
1679064183151699274,1.072
1679064183159396150,0.359
1679064183167093026,-0.63
1679064183174789902,-0.642
1679064183182486778,-0.11
1679064183190183654,-0.106
1679064183197880530,-0.279
1679064183205577406,-0.179
1679064183213274282,-0.11
1679064183220971158,-0.15
1679064183228668034,-0.121
1679064183236364910,-0.073
1679064183244061786,-0.073
1679064183251758662,-0.06
1679064183259455538,-0.029
1679064183267152414,0.006
1679064183274849290,0.033
1679064183282546166,0.039
1679064183290243042,0.05
1679064183297939918,0.089
1679064183305636828,0.11800000000000001
1679064183313333983,0.137
1679064183321031138,0.166
1679064183328728293,0.192
1679064183336425448,0.179
1679064183344122603,0.14400000000000002
1679064183351819758,0.146
1679064183359516913,0.187
1679064183367214068,0.20400000000000001
1679064183374911223,0.196
1679064183382608378,0.215
1679064183390305533,0.25
1679064183398002688,0.267,,925
1679064183405699843,0.271
1679064183413396998,0.275
1679064183421094153,0.256
1679064183428791308,0.212
1679064183436488463,0.152
1679064183444185618,0.075
1679064183451882773,0.02
1679064183459579928,-0.006
1679064183467277083,-0.037
1679064183474974238,-0.048
1679064183482671393,-0.027
1679064183490368548,-0.02
1679064183498065703,-0.018000000000000002
1679064183505762858,0.0
1679064183513460013,0.006
1679064183521157168,0.002
1679064183528854323,0.014
1679064183536551478,0.037
1679064183544248633,0.048
1679064183551945788,0.05
1679064183559642943,0.058
1679064183567340098,0.073
1679064183575037253,0.083
1679064183582734408,0.07
1679064183590431563,0.022
1679064183598128718,0.002
1679064183605825873,0.027
1679064183613523028,0.031
1679064183621220183,0.035
1679064183628917338,0.085
1679064183636614493,0.125
1679064183644311648,0.123
1679064183652008803,0.121
1679064183659705958,0.135
1679064183667403113,0.14400000000000002
1679064183675100268,0.133
1679064183682797423,0.11800000000000001
1679064183690494578,0.085
1679064183698191733,0.045
1679064183705888888,0.035
1679064183713586043,0.052000000000000005
1679064183721283198,0.068
1679064183728980353,0.073
1679064183736677508,0.07
1679064183744374663,0.075
1679064183752071818,0.075
1679064183759768973,0.052000000000000005
1679064183767466128,0.035
1679064183775163283,0.056
1679064183782860438,0.073
1679064183790557593,0.054
1679064183798254748,0.043000000000000003
1679064183805951903,0.066
1679064183813649058,0.083
1679064183821346213,0.079
1679064183829043368,0.079
1679064183836740523,0.085
1679064183844437678,0.08700000000000001
1679064183852134833,0.08700000000000001
1679064183859831988,0.098
1679064183867529161,0.116,72
1679064183875224922,0.125
1679064183882920683,0.108
1679064183890616444,0.10200000000000001
1679064183898312205,0.127
1679064183906007966,0.139
1679064183913703727,0.116
1679064183921399488,0.075
1679064183929095249,0.01
1679064183936791010,-0.096
1679064183944486771,-0.177
1679064183952182532,-0.164
1679064183959878293,-0.129
1679064183967574054,-0.139
1679064183975269815,-0.17500000000000002
1679064183982965576,-0.202
1679064183990661337,-0.21
1679064183998357098,-0.20600000000000002
1679064184006052859,-0.20400000000000001
1679064184013748620,-0.20400000000000001
1679064184021444381,-0.2
1679064184029140142,-0.202
1679064184036835903,-0.198
1679064184044531664,-0.183
1679064184052227425,-0.129
1679064184059923186,0.093
1679064184067618947,0.5760000000000001
1679064184075314708,1.068
1679064184083010469,0.922
1679064184090706230,-0.10200000000000001
1679064184098401991,-0.851
1679064184106097752,-0.507
1679064184113793513,-0.121
1679064184121489274,-0.269
1679064184129185035,-0.298
1679064184136880796,-0.15
1679064184144576557,-0.146
1679064184152272318,-0.17300000000000001
1679064184159968079,-0.125
1679064184167663840,-0.093
1679064184175359601,-0.10400000000000001
1679064184183055362,-0.106
1679064184190751123,-0.083
1679064184198446884,-0.054
1679064184206142645,-0.048
1679064184213838406,-0.048
1679064184221534167,-0.014
1679064184229229928,0.029
1679064184236925689,0.054
1679064184244621450,0.066
1679064184252317211,0.089
1679064184260012972,0.125
1679064184267708733,0.152
1679064184275404494,0.171
1679064184283100255,0.20600000000000002
1679064184290796016,0.246
1679064184298491777,0.252
1679064184306187538,0.252
1679064184313883299,0.28300000000000003
1679064184321579060,0.319
1679064184329274821,0.327
1679064184336970582,0.321,,935
1679064184344666343,0.311
1679064184352362104,0.28500000000000003
1679064184360057865,0.23700000000000002
1679064184367753626,0.185
1679064184375449387,0.152
1679064184383145148,0.127
1679064184390840909,0.085
1679064184398536670,0.06
1679064184406232431,0.077
1679064184413928192,0.1
1679064184421623953,0.091
1679064184429319764,0.062,71
1679064184437016431,0.052000000000000005
1679064184444713098,0.06
1679064184452409765,0.062
1679064184460106432,0.075
1679064184467803099,0.1
1679064184475499766,0.106
1679064184483196433,0.091
1679064184490893100,0.10400000000000001
1679064184498589767,0.146
1679064184506286434,0.137
1679064184513983101,0.079
1679064184521679768,0.05
1679064184529376435,0.037
1679064184537073102,0.037
1679064184544769769,0.075
1679064184552466436,0.093
1679064184560163103,0.093
1679064184567859770,0.10200000000000001
1679064184575556437,0.089
1679064184583253104,0.081
1679064184590949771,0.056
1679064184598646438,-0.018000000000000002
1679064184606343105,-0.058
1679064184614039772,-0.033
1679064184621736439,-0.031
1679064184629433106,-0.05
1679064184637129773,-0.039
1679064184644826440,-0.01
1679064184652523107,0.006
1679064184660219774,0.002
1679064184667916441,-0.031
1679064184675613108,-0.066
1679064184683309775,-0.068
1679064184691006442,-0.081
1679064184698703109,-0.114
1679064184706399776,-0.116
1679064184714096443,-0.112
1679064184721793110,-0.129
1679064184729489777,-0.123
1679064184737186444,-0.096
1679064184744883111,-0.081
1679064184752579778,-0.085
1679064184760276445,-0.083
1679064184767973112,-0.066
1679064184775669779,-0.05
1679064184783366446,-0.043000000000000003
1679064184791063113,-0.027
1679064184798759780,-0.008
1679064184806456447,-0.008
1679064184814153114,-0.008
1679064184821849781,0.008
1679064184829546448,0.033
1679064184837243115,0.045
1679064184844939782,0.039
1679064184852636449,0.012
1679064184860333116,-0.01
1679064184868029783,-0.031
1679064184875726450,-0.062
1679064184883423117,-0.068
1679064184891119784,-0.039
1679064184898816451,-0.035
1679064184906513118,-0.045
1679064184914209785,-0.06
1679064184921906452,-0.121
1679064184929603119,-0.181
1679064184937299786,-0.179
1679064184944996453,-0.169
1679064184952693120,-0.17500000000000002
1679064184960389787,-0.169
1679064184968086454,-0.154
1679064184975783121,-0.14100000000000001
1679064184983479788,-0.152
1679064184991176488,-0.185
1679064184998872737,-0.091
1679064185006568986,0.321
1679064185014265235,0.897
1679064185021961484,1.093
1679064185029657733,0.41500000000000004
1679064185037353982,-0.5760000000000001
1679064185045050231,-0.672
1679064185052746480,-0.185
1679064185060442729,-0.108
1679064185068138978,-0.219
1679064185075835227,-0.156
1679064185083531476,-0.127
1679064185091227725,-0.16
1679064185098923974,-0.164
1679064185106620223,-0.192
1679064185114316472,-0.221
