ts,red,ir,green
1679064194941881,104292.0,133573.0,6919.0
1679064194951881,104149.0,133687.0,6896.0
1679064194961881,104039.0,133799.0,6884.0
1679064194971881,103955.0,133902.0,6844.0
1679064194981881,103903.0,133957.0,6834.0
1679064194991881,103847.0,134012.0,6828.0
1679064195002881,103862.0,134038.0,6823.0
1679064195011881,103903.0,134004.0,6805.0
1679064195021881,103880.0,133980.0,6833.0
1679064195031881,103878.0,133968.0,6833.0
1679064195042881,103915.0,133936.0,6851.0
1679064195051881,103954.0,133892.0,6857.0
1679064195061881,104018.0,133830.0,6865.0
1679064195071881,104063.0,133758.0,6877.0
1679064195082881,104085.0,133764.0,6901.0
1679064195091881,104148.0,133711.0,6920.0
1679064195101881,104175.0,133678.0,6928.0
1679064195111881,104197.0,133632.0,6953.0
1679064195121881,104264.0,133597.0,6975.0
1679064195131881,104335.0,133572.0,6974.0
1679064195141881,104398.0,133547.0,6980.0
1679064195151881,104417.0,133521.0,6997.0
1679064195161881,104465.0,133498.0,7033.0
1679064195171881,104517.0,133526.0,7029.0
1679064195181881,104557.0,133517.0,7038.0
1679064195191881,104572.0,133538.0,7039.0
1679064195201881,104583.0,133517.0,7036.0
1679064195211881,104577.0,133518.0,7049.0
1679064195221881,104545.0,133535.0,7045.0
1679064195231881,104564.0,133547.0,7026.0
1679064195241881,104548.0,133493.0,7032.0
1679064195251881,104533.0,133565.0,7021.0
1679064195261881,104522.0,133602.0,6977.0
1679064195271881,104501.0,133601.0,6981.0
1679064195282881,104476.0,133638.0,6988.0
1679064195291881,104458.0,133624.0,7002.0
1679064195301881,104445.0,133651.0,7000.0
1679064195311881,104487.0,133670.0,7013.0
1679064195321881,104448.0,133652.0,7007.0
1679064195331881,104449.0,133626.0,7006.0
1679064195341881,104458.0,133636.0,7016.0
1679064195351881,104467.0,133624.0,7005.0
1679064195361881,104470.0,133637.0,7002.0
1679064195371881,104491.0,133604.0,7014.0
1679064195381881,104499.0,133630.0,7008.0
1679064195391881,104516.0,133569.0,7018.0
1679064195401881,104542.0,133606.0,7027.0
1679064195411881,104566.0,133634.0,7015.0
1679064195421881,104570.0,133571.0,7034.0
1679064195431881,104582.0,133565.0,7037.0
1679064195441881,104598.0,133573.0,7046.0
1679064195451881,104605.0,133566.0,7032.0
1679064195461881,104612.0,133610.0,7049.0
1679064195471881,104589.0,133619.0,7056.0
1679064195481881,104607.0,133603.0,7056.0
1679064195492881,104632.0,133603.0,7061.0
1679064195502881,104666.0,133569.0,7051.0
1679064195511881,104671.0,133553.0,7053.0
1679064195521881,104674.0,133599.0,7059.0
1679064195531881,104678.0,133544.0,7058.0
1679064195541881,104675.0,133556.0,7046.0
1679064195551881,104685.0,133536.0,7058.0
1679064195561881,104686.0,133533.0,7063.0
1679064195571881,104686.0,133540.0,7068.0
1679064195581881,104718.0,133542.0,7058.0
1679064195590881,104722.0,133558.0,7075.0
1679064195603881,104741.0,133571.0,7053.0
1679064195611881,104735.0,133539.0,7052.0
1679064195621881,104751.0,133558.0,7080.0
1679064195630881,104755.0,133568.0,7045.0
1679064195641881,104757.0,133558.0,7031.0
1679064195651881,104722.0,133566.0,7088.0
1679064195662881,104764.0,133559.0,7087.0
1679064195670880,104748.0,133568.0,7073.0
1679064195681880,104826.0,133508.0,7101.0
1679064195691880,104836.0,133530.0,7107.0
1679064195703880,104854.0,133531.0,7114.0
1679064195711880,104867.0,133545.0,7107.0
1679064195721880,104875.0,133540.0,7106.0
1679064195731880,104884.0,133559.0,7121.0
1679064195742880,104886.0,133576.0,7113.0
1679064195751880,104906.0,133557.0,7120.0
1679064195761881,104911.0,133575.0,7117.0
1679064195771881,104923.0,133581.0,7119.0
1679064195781881,104928.0,133592.0,7082.0
1679064195791881,104891.0,133620.0,7093.0
1679064195800881,104785.0,133625.0,7090.0
1679064195811881,104693.0,133667.0,7065.0
1679064195821881,104631.0,133736.0,7021.0
1679064195832881,104503.0,133819.0,6995.0
1679064195841881,104381.0,133893.0,6964.0
1679064195850881,104281.0,133925.0,6943.0
1679064195861881,104207.0,134067.0,6893.0
1679064195871881,104138.0,134123.0,6874.0
1679064195881881,104103.0,134171.0,6859.0
1679064195890881,104101.0,134208.0,6861.0
1679064195901881,104096.0,134200.0,6869.0
1679064195911881,104100.0,134161.0,6874.0
1679064195921881,104091.0,134111.0,6883.0
1679064195930881,104122.0,134079.0,6894.0
1679064195941881,104179.0,134027.0,6916.0
1679064195951881,104231.0,133990.0,6937.0
1679064195961881,104291.0,133890.0,6939.0
1679064195971881,104344.0,133850.0,6960.0
1679064195980881,104393.0,133865.0,6970.0
1679064195991881,104443.0,133826.0,6964.0
1679064196001881,104489.0,133813.0,7002.0
1679064196011881,104545.0,133789.0,7021.0
1679064196020881,104575.0,133755.0,7033.0
1679064196031881,104666.0,133732.0,7069.0
1679064196041881,104778.0,133714.0,7076.0
1679064196051881,104843.0,133706.0,7093.0
1679064196061881,104895.0,133701.0,7092.0
1679064196071881,104923.0,133672.0,7117.0
1679064196081881,104932.0,133677.0,7106.0
1679064196090881,104924.0,133703.0,7113.0
1679064196101881,104909.0,133715.0,7095.0
1679064196111881,104877.0,133716.0,7068.0
1679064196121881,104840.0,133738.0,7089.0
1679064196130881,104816.0,133735.0,7075.0
1679064196141881,104749.0,133778.0,7067.0
1679064196150881,104699.0,133774.0,7076.0
1679064196161881,104711.0,133788.0,7062.0
1679064196170881,104699.0,133796.0,7068.0
1679064196181881,104715.0,133797.0,7061.0
1679064196191881,104713.0,133792.0,7062.0
1679064196201881,104712.0,133783.0,7062.0
1679064196211881,104714.0,133786.0,7062.0
1679064196220881,104732.0,133805.0,7061.0
1679064196231881,104745.0,133805.0,7040.0
1679064196241881,104755.0,133794.0,7055.0
1679064196251881,104754.0,133782.0,7056.0
1679064196260881,104782.0,133797.0,7081.0
1679064196271881,104784.0,133770.0,7087.0
1679064196280881,104786.0,133780.0,7092.0
1679064196291881,104822.0,133753.0,7099.0
1679064196300881,104834.0,133753.0,7099.0
1679064196311881,104858.0,133784.0,7102.0
1679064196320881,104882.0,133759.0,7116.0
1679064196331881,104907.0,133766.0,7114.0
1679064196340881,104934.0,133748.0,7116.0
1679064196351881,104971.0,133755.0,7123.0
1679064196361881,105009.0,133746.0,7125.0
1679064196371881,105056.0,133741.0,7146.0
1679064196380881,105089.0,133757.0,7140.0
1679064196390881,105112.0,133750.0,7138.0
1679064196401881,105107.0,133766.0,7147.0
1679064196411881,105101.0,133766.0,7151.0
1679064196420881,105143.0,133783.0,7120.0
1679064196430881,105086.0,133762.0,7149.0
1679064196441881,105109.0,133780.0,7159.0
1679064196451881,105123.0,133785.0,7165.0
1679064196461881,105165.0,133799.0,7153.0
1679064196470881,105182.0,133808.0,7164.0
1679064196481881,105208.0,133810.0,7171.0
1679064196491881,105209.0,133828.0,7162.0
1679064196502881,105234.0,133791.0,7165.0
1679064196510881,105229.0,133788.0,7172.0
1679064196521880,105223.0,133834.0,7178.0
1679064196531880,105223.0,133858.0,7168.0
1679064196541880,105231.0,133861.0,7172.0
1679064196550881,105205.0,133868.0,7170.0
1679064196560881,105220.0,133874.0,7167.0
1679064196571880,105220.0,133899.0,7171.0
1679064196581880,105186.0,133910.0,7136.0
1679064196590880,105068.0,133931.0,7112.0
1679064196600880,104911.0,133948.0,7087.0
1679064196611880,104761.0,134001.0,7053.0
1679064196621880,104568.0,134069.0,7005.0
1679064196630880,104458.0,134126.0,6974.0
1679064196640880,104413.0,134205.0,6945.0
1679064196651880,104357.0,134203.0,6931.0
1679064196661881,104307.0,134233.0,6924.0
1679064196670881,104296.0,134228.0,6911.0
1679064196680881,104311.0,134243.0,6907.0
1679064196690881,104335.0,134204.0,6932.0
1679064196701881,104377.0,134179.0,6936.0
1679064196711881,104418.0,134146.0,6937.0
1679064196720881,104468.0,134104.0,6966.0
1679064196730881,104476.0,134109.0,6975.0
1679064196741881,104538.0,134092.0,7008.0
1679064196751881,104589.0,134074.0,7004.0
1679064196760881,104674.0,134007.0,7018.0
1679064196770881,104745.0,133973.0,7040.0
1679064196781881,104818.0,133977.0,7067.0
1679064196791881,104905.0,133927.0,7086.0
1679064196800881,105024.0,133911.0,7107.0
1679064196810881,105131.0,133896.0,7140.0
1679064196821881,105252.0,134000.0,7166.0
1679064196831881,105335.0,134003.0,7191.0
1679064196840881,105402.0,134008.0,7192.0
1679064196850881,105460.0,133947.0,7200.0
1679064196860881,105487.0,134001.0,7210.0
1679064196871881,105505.0,134010.0,7172.0
1679064196880881,105495.0,134012.0,7174.0
1679064196891881,105461.0,134011.0,7157.0
1679064196900881,105422.0,134022.0,7170.0
1679064196911881,105384.0,133981.0,7173.0
1679064196920881,105325.0,134025.0,7156.0
1679064196931881,105296.0,133997.0,7161.0
1679064196940881,105249.0,134002.0,7157.0
1679064196951881,105223.0,134037.0,7150.0
1679064196961881,105206.0,134046.0,7152.0
1679064196970881,105191.0,134045.0,7144.0
1679064196980881,105197.0,134032.0,7143.0
1679064196991881,105217.0,134039.0,7151.0
1679064197001881,105247.0,134044.0,7144.0
1679064197010881,105278.0,134048.0,7158.0
1679064197020881,105317.0,134099.0,7165.0
1679064197030881,105339.0,134058.0,7179.0
1679064197041881,105392.0,134079.0,7148.0
1679064197050881,105413.0,134082.0,7181.0
1679064197060881,105457.0,134103.0,7197.0
1679064197070881,105448.0,134105.0,7215.0
1679064197081881,105510.0,134136.0,7214.0
1679064197090881,105532.0,134167.0,7224.0
1679064197101881,105591.0,134169.0,7231.0
1679064197111881,105618.0,134174.0,7243.0
1679064197121881,105672.0,134179.0,7228.0
1679064197130881,105687.0,134160.0,7238.0
1679064197140881,105706.0,134166.0,7244.0
1679064197150881,105739.0,134145.0,7233.0
1679064197161881,105758.0,134171.0,7241.0
1679064197170881,105771.0,134164.0,7246.0
1679064197180881,105786.0,134219.0,7253.0
1679064197190881,105805.0,134223.0,7236.0
1679064197200881,105820.0,134245.0,7241.0
1679064197211881,105830.0,134241.0,7231.0
1679064197220881,105778.0,134250.0,7249.0
1679064197230881,105831.0,134260.0,7222.0
1679064197240881,105782.0,134268.0,7244.0
1679064197251881,105805.0,134279.0,7268.0
1679064197260881,105808.0,134270.0,7254.0
1679064197270881,105859.0,134281.0,7268.0
1679064197280881,105888.0,134277.0,7252.0
1679064197290881,105906.0,134282.0,7265.0
1679064197300881,105923.0,134292.0,7250.0
1679064197310881,105951.0,134295.0,7254.0
1679064197320881,105949.0,134297.0,7250.0
1679064197331881,105968.0,134297.0,7283.0
1679064197340881,105979.0,134297.0,7279.0
1679064197350881,105999.0,134308.0,7272.0
1679064197360881,106012.0,134316.0,7252.0
1679064197370881,106013.0,134334.0,7253.0
1679064197380881,105998.0,134334.0,7246.0
1679064197390881,105875.0,134325.0,7261.0
1679064197400881,105787.0,134381.0,7228.0
1679064197410881,105584.0,134365.0,7198.0
1679064197420881,105342.0,134330.0,7155.0
1679064197430881,105066.0,134332.0,7096.0
1679064197440881,104905.0,134388.0,7061.0
1679064197450881,104784.0,134425.0,7007.0
1679064197461881,104698.0,134469.0,6980.0
1679064197470881,104647.0,134504.0,6975.0
1679064197480881,104624.0,134462.0,6958.0
1679064197490881,104618.0,134449.0,6963.0
1679064197501881,104635.0,134440.0,6981.0
1679064197510881,104684.0,134466.0,6990.0
1679064197520881,104716.0,134462.0,7000.0
1679064197530881,104782.0,134409.0,6997.0
1679064197540881,104793.0,134396.0,7034.0
1679064197550881,104869.0,134391.0,7048.0
1679064197560881,104943.0,134375.0,7063.0
1679064197570881,105041.0,134342.0,7087.0
1679064197581881,105116.0,134320.0,7070.0
1679064197589881,105184.0,134330.0,7089.0
1679064197600880,105233.0,134331.0,7115.0
1679064197610880,105318.0,134325.0,7145.0
1679064197621880,105434.0,134341.0,7168.0
1679064197629880,105536.0,134326.0,7182.0
1679064197640880,105625.0,134325.0,7197.0
1679064197650880,105713.0,134321.0,7218.0
1679064197661880,105757.0,134369.0,7230.0
1679064197670880,105794.0,134367.0,7237.0
1679064197679880,105814.0,134373.0,7244.0
1679064197690880,105819.0,134370.0,7213.0
1679064197700880,105821.0,134388.0,7193.0
1679064197711880,105773.0,134376.0,7221.0
1679064197719880,105730.0,134398.0,7232.0
1679064197730880,105718.0,134358.0,7206.0
1679064197740881,105676.0,134372.0,7221.0
1679064197751881,105657.0,134374.0,7208.0
1679064197760881,105626.0,134295.0,7197.0
1679064197770881,105594.0,134297.0,7203.0
1679064197780881,105574.0,134352.0,7196.0
1679064197791881,105571.0,134368.0,7195.0
1679064197800881,105588.0,134344.0,7182.0
1679064197809881,105578.0,134343.0,7188.0
1679064197820881,105616.0,134346.0,7187.0
1679064197830881,105661.0,134327.0,7208.0
1679064197840881,105678.0,134331.0,7210.0
1679064197849881,105717.0,134328.0,7213.0
1679064197860881,105749.0,134320.0,7218.0
1679064197870881,105784.0,134323.0,7212.0
1679064197880881,105808.0,134355.0,7201.0
1679064197889881,105819.0,134352.0,7219.0
1679064197900881,105815.0,134346.0,7254.0
1679064197910881,105824.0,134360.0,7268.0
1679064197920881,105881.0,134360.0,7264.0
1679064197929881,105905.0,134376.0,7275.0
1679064197940881,105973.0,134377.0,7278.0
1679064197950881,106004.0,134332.0,7294.0
1679064197961881,106028.0,134380.0,7286.0
1679064197969880,106044.0,134358.0,7301.0
1679064197980880,106064.0,134372.0,7286.0
1679064197990880,106061.0,134349.0,7279.0
1679064198001880,106079.0,134362.0,7290.0
1679064198009880,106075.0,134355.0,7290.0
1679064198020880,106083.0,134354.0,7278.0
1679064198030880,106083.0,134389.0,7293.0
1679064198041880,106087.0,134404.0,7308.0
1679064198049880,106085.0,134347.0,7295.0
1679064198060880,106130.0,134334.0,7293.0
1679064198070880,106135.0,134302.0,7317.0
1679064198081880,106155.0,134335.0,7314.0
1679064198089880,106165.0,134337.0,7315.0
1679064198100881,106150.0,134362.0,7313.0
1679064198110881,106139.0,134348.0,7309.0
1679064198121881,106141.0,134380.0,7285.0
1679064198129881,106147.0,134322.0,7306.0
1679064198140880,106143.0,134369.0,7319.0
1679064198150880,106165.0,134365.0,7309.0
1679064198160880,106186.0,134377.0,7324.0
1679064198170880,106194.0,134376.0,7306.0
1679064198179880,106207.0,134397.0,7317.0
1679064198190880,106217.0,134386.0,7330.0
1679064198200880,106248.0,134386.0,7326.0
1679064198211880,106262.0,134376.0,7343.0
1679064198219880,106261.0,134376.0,7328.0
1679064198230880,106271.0,134388.0,7303.0
1679064198240880,106276.0,134348.0,7326.0
1679064198251880,106285.0,134374.0,7332.0
1679064198259880,106292.0,134378.0,7339.0
1679064198270880,106282.0,134371.0,7336.0
1679064198280881,106239.0,134376.0,7319.0
1679064198290881,106129.0,134373.0,7304.0
1679064198300881,105940.0,134361.0,7251.0
1679064198309881,105697.0,134356.0,7220.0
1679064198320881,105418.0,134349.0,7160.0
1679064198330881,105148.0,134321.0,7103.0
1679064198339881,105009.0,134328.0,7052.0
1679064198349881,104808.0,134356.0,7040.0
1679064198360881,104722.0,134386.0,7016.0
1679064198370881,104667.0,134393.0,6995.0
1679064198379881,104712.0,134386.0,6994.0
1679064198390881,104727.0,134382.0,6976.0
1679064198399881,104763.0,134339.0,7003.0
1679064198410881,104814.0,134345.0,6996.0
1679064198420881,104873.0,134310.0,7013.0
1679064198429881,104957.0,134338.0,7058.0
1679064198439881,105024.0,134258.0,7065.0
1679064198450881,105099.0,134243.0,7076.0
1679064198460881,105158.0,134234.0,7098.0
1679064198470881,105229.0,134225.0,7108.0
1679064198479881,105257.0,134239.0,7145.0
1679064198490881,105377.0,134278.0,7157.0
1679064198500881,105464.0,134283.0,7175.0
1679064198510881,105562.0,134263.0,7203.0
1679064198521881,105659.0,134247.0,7232.0
1679064198530881,105772.0,134281.0,7253.0
1679064198540881,105859.0,134254.0,7241.0
1679064198550881,105942.0,134250.0,7266.0
1679064198559881,105973.0,134234.0,7275.0
1679064198570881,105995.0,134259.0,7280.0
1679064198580881,106000.0,134235.0,7283.0
1679064198590881,105988.0,134259.0,7285.0
1679064198600881,105957.0,134272.0,7278.0
1679064198609881,105926.0,134282.0,7268.0
1679064198622881,105910.0,134274.0,7229.0
1679064198629881,105848.0,134262.0,7232.0
1679064198640881,105834.0,134262.0,7238.0
1679064198649881,105800.0,134245.0,7238.0
1679064198660881,105751.0,134257.0,7239.0
1679064198669881,105704.0,134265.0,7230.0
1679064198680881,105743.0,134266.0,7239.0
1679064198689881,105759.0,134249.0,7242.0
1679064198700881,105756.0,134258.0,7241.0
1679064198710881,105778.0,134229.0,7250.0
1679064198720881,105783.0,134245.0,7260.0
1679064198729881,105800.0,134220.0,7241.0
1679064198740881,105840.0,134197.0,7267.0
1679064198750881,105855.0,134187.0,7263.0
1679064198760881,105887.0,134210.0,7263.0
1679064198769881,105913.0,134229.0,7272.0
1679064198780881,105945.0,134233.0,7282.0
1679064198790881,105981.0,134242.0,7287.0
1679064198799881,106016.0,134235.0,7278.0
1679064198810881,106051.0,134258.0,7274.0
1679064198819881,106063.0,134262.0,7264.0
1679064198830881,106051.0,134284.0,7309.0
1679064198839881,106044.0,134268.0,7312.0
1679064198850881,106080.0,134281.0,7313.0
1679064198859881,106111.0,134253.0,7303.0
1679064198870881,106139.0,134238.0,7312.0
1679064198879881,106169.0,134232.0,7321.0
1679064198889881,106202.0,134267.0,7306.0
1679064198900881,106228.0,134288.0,7299.0
1679064198909881,106235.0,134278.0,7328.0
1679064198919881,106211.0,134288.0,7333.0
1679064198929881,106203.0,134290.0,7342.0
1679064198940881,106237.0,134289.0,7308.0
1679064198949881,106220.0,134272.0,7320.0
1679064198960881,106218.0,134272.0,7333.0
1679064198969881,106225.0,134262.0,7337.0
1679064198980881,106247.0,134279.0,7333.0
1679064198989881,106262.0,134285.0,7342.0
1679064199000881,106282.0,134279.0,7346.0
1679064199009881,106294.0,134270.0,7336.0
1679064199020881,106305.0,134216.0,7350.0
1679064199029881,106299.0,134205.0,7352.0
1679064199040881,106297.0,134216.0,7346.0
1679064199049881,106296.0,134201.0,7354.0
1679064199060881,106336.0,134194.0,7363.0
1679064199070881,106384.0,134230.0,7365.0
1679064199079881,106409.0,134227.0,7371.0
1679064199089881,106465.0,134240.0,7374.0
1679064199099881,106504.0,134227.0,7381.0
1679064199110881,106537.0,134228.0,7370.0
1679064199120881,106567.0,134256.0,7383.0
1679064199129881,106580.0,134219.0,7399.0
1679064199139881,106609.0,134256.0,7406.0
1679064199150881,106604.0,134239.0,7413.0
1679064199159881,106624.0,134235.0,7420.0
1679064199169881,106619.0,134234.0,7419.0
1679064199179881,106640.0,134232.0,7418.0
1679064199189881,106653.0,134208.0,7429.0
1679064199200881,106687.0,134236.0,7406.0
1679064199209881,106698.0,134225.0,7410.0
1679064199219881,106720.0,134217.0,7410.0
1679064199229881,106707.0,134248.0,7420.0
1679064199240881,106714.0,134247.0,7435.0
1679064199249881,106735.0,134229.0,7433.0
1679064199259881,106726.0,134219.0,7433.0
1679064199269881,106721.0,134206.0,7425.0
1679064199280881,106717.0,134206.0,7417.0
1679064199289881,106710.0,134217.0,7422.0
1679064199299881,106666.0,134222.0,7394.0
1679064199309881,106563.0,134207.0,7381.0
1679064199320881,106389.0,134180.0,7341.0
1679064199329881,106109.0,134142.0,7309.0
1679064199339881,105831.0,134057.0,7242.0
1679064199349881,105530.0,134071.0,7183.0
1679064199360881,105236.0,134016.0,7117.0
1679064199369881,104995.0,133991.0,7081.0
1679064199379881,104799.0,134010.0,7081.0
1679064199389881,104717.0,134027.0,7056.0
1679064199400881,104705.0,134037.0,7041.0
1679064199409881,104699.0,134030.0,7038.0
1679064199419881,104720.0,134034.0,7043.0
1679064199429881,104763.0,134017.0,7060.0
1679064199440881,104806.0,134025.0,7038.0
1679064199449881,104890.0,133970.0,7076.0
1679064199460881,104974.0,133967.0,7107.0
1679064199469881,105069.0,133964.0,7131.0
1679064199480881,105171.0,134006.0,7154.0
1679064199489881,105298.0,134004.0,7181.0
1679064199500881,105376.0,134027.0,7190.0
1679064199509881,105470.0,134041.0,7197.0
1679064199520881,105549.0,134036.0,7213.0
1679064199530881,105618.0,134052.0,7228.0
1679064199540881,105707.0,134071.0,7243.0
1679064199549881,105778.0,134064.0,7264.0
1679064199559881,105856.0,134078.0,7241.0
1679064199569881,105949.0,134090.0,7266.0
1679064199579881,106005.0,134089.0,7303.0
1679064199589881,106033.0,134092.0,7313.0
1679064199599881,106029.0,134089.0,7315.0
1679064199609881,106017.0,134109.0,7319.0
1679064199619881,106006.0,134092.0,7310.0
1679064199630881,105981.0,134110.0,7297.0
1679064199639881,105977.0,134054.0,7292.0
1679064199649881,105941.0,134132.0,7290.0
1679064199659881,105901.0,134108.0,7282.0
1679064199669881,105877.0,134108.0,7280.0
1679064199679881,105837.0,134083.0,7260.0
1679064199689881,105807.0,134093.0,7251.0
1679064199699881,105773.0,134093.0,7262.0
1679064199710881,105735.0,134092.0,7249.0
1679064199719881,105710.0,134071.0,7247.0
1679064199731881,105672.0,134069.0,7247.0
1679064199739881,105667.0,134048.0,7233.0
1679064199750881,105654.0,134035.0,7230.0
1679064199759881,105651.0,134014.0,7221.0
1679064199769881,105662.0,134007.0,7223.0
1679064199779881,105673.0,133986.0,7235.0
1679064199790881,105674.0,134027.0,7240.0
1679064199799881,105697.0,134038.0,7242.0
1679064199809881,105699.0,134036.0,7245.0
1679064199819881,105737.0,134021.0,7241.0
1679064199832881,105750.0,134037.0,7259.0
1679064199839881,105789.0,134028.0,7255.0
1679064199849881,105799.0,133973.0,7265.0
1679064199859881,105818.0,133985.0,7262.0
1679064199870880,105841.0,133986.0,7282.0
1679064199879881,105861.0,133993.0,7283.0
1679064199889881,105886.0,134017.0,7292.0
1679064199899881,105912.0,133994.0,7289.0
1679064199909881,105964.0,134020.0,7292.0
1679064199919881,105941.0,134019.0,7309.0
1679064199929881,105946.0,134018.0,7306.0
1679064199939881,106009.0,134010.0,7307.0
1679064199949881,105961.0,134014.0,7318.0
1679064199960881,105989.0,134032.0,7318.0
1679064199969881,106031.0,134018.0,7319.0
1679064199979881,106053.0,134024.0,7322.0
1679064199989881,106065.0,133990.0,7332.0
1679064200000881,106075.0,133960.0,7325.0
1679064200009881,106092.0,133939.0,7321.0
1679064200019881,106077.0,133952.0,7323.0
1679064200029881,106072.0,133940.0,7322.0
1679064200040881,106048.0,133949.0,7318.0
1679064200048880,106028.0,133973.0,7308.0
1679064200059880,105985.0,133976.0,7309.0
1679064200069880,105957.0,133958.0,7301.0
1679064200080881,105947.0,133978.0,7295.0
1679064200089881,105943.0,133933.0,7285.0
1679064200099881,105935.0,133970.0,7289.0
1679064200109881,105932.0,133967.0,7300.0
1679064200120881,105904.0,133940.0,7294.0
1679064200129881,105920.0,133940.0,7283.0
1679064200138881,105915.0,133935.0,7298.0
1679064200149881,105948.0,133945.0,7269.0
1679064200159881,105954.0,133927.0,7295.0
1679064200169881,106004.0,133941.0,7266.0
1679064200178881,106030.0,133944.0,7314.0
1679064200189881,106077.0,133956.0,7318.0
1679064200199881,106114.0,133953.0,7341.0
1679064200210881,106153.0,133956.0,7348.0
1679064200218881,106179.0,133959.0,7350.0
1679064200229880,106180.0,133963.0,7358.0
1679064200239880,106191.0,133927.0,7341.0
1679064200250880,106166.0,133960.0,7348.0
1679064200258881,106153.0,133962.0,7342.0
1679064200269881,106117.0,133959.0,7339.0
1679064200279881,106076.0,133934.0,7326.0
1679064200289881,105958.0,133945.0,7314.0
1679064200299881,105812.0,133947.0,7269.0
1679064200308881,105613.0,133923.0,7215.0
1679064200319881,105353.0,133919.0,7145.0
1679064200329881,105061.0,133902.0,7088.0
1679064200338881,104812.0,133932.0,7026.0
1679064200349881,104654.0,133976.0,7022.0
1679064200359881,104541.0,134053.0,6988.0
1679064200370880,104478.0,134088.0,6971.0
1679064200379881,104463.0,134115.0,6961.0
1679064200388881,104427.0,134116.0,6938.0
1679064200399881,104457.0,134086.0,6946.0
1679064200409881,104489.0,134056.0,6992.0
1679064200419880,104520.0,134025.0,7000.0
1679064200428881,104596.0,133990.0,7025.0
1679064200439881,104681.0,133969.0,7032.0
1679064200449881,104724.0,133919.0,7051.0
1679064200460881,104827.0,133933.0,7081.0
1679064200468881,104908.0,133917.0,7084.0
1679064200479880,104964.0,133852.0,7100.0
1679064200489880,105025.0,133839.0,7110.0
1679064200500880,105092.0,133844.0,7129.0
1679064200508880,105136.0,133884.0,7138.0
1679064200519880,105181.0,133886.0,7144.0
1679064200529880,105211.0,133878.0,7150.0
1679064200540880,105216.0,133884.0,7133.0
1679064200548880,105212.0,133906.0,7147.0
1679064200558880,105209.0,133899.0,7146.0
1679064200569880,105206.0,133900.0,7126.0
1679064200579880,105189.0,133901.0,7125.0
1679064200588880,105197.0,133902.0,7102.0
1679064200598880,105187.0,133886.0,7103.0
1679064200609880,105191.0,133911.0,7093.0
1679064200619881,105189.0,133907.0,7102.0
1679064200629881,105168.0,133900.0,7085.0
1679064200638881,105112.0,133903.0,7112.0
1679064200649881,105098.0,133873.0,7101.0
1679064200659881,105038.0,133909.0,7115.0
1679064200669881,104982.0,133924.0,7112.0
1679064200678881,104957.0,133937.0,7107.0
1679064200689881,105014.0,133935.0,7107.0
1679064200699881,105013.0,133936.0,7105.0
1679064200710881,105025.0,133889.0,7107.0
1679064200718881,105055.0,133847.0,7109.0
1679064200729880,105104.0,133835.0,7124.0
1679064200739880,105135.0,133816.0,7136.0
1679064200749880,105181.0,133878.0,7151.0
1679064200758880,105180.0,133862.0,7145.0
1679064200769880,105204.0,133858.0,7147.0
1679064200779880,105251.0,133828.0,7156.0
1679064200789880,105284.0,133857.0,7169.0
1679064200798881,105308.0,133848.0,7170.0
1679064200809881,105325.0,133853.0,7174.0
1679064200819881,105341.0,133909.0,7180.0
1679064200829881,105333.0,133897.0,7170.0
1679064200838881,105324.0,133894.0,7168.0
1679064200848881,105277.0,133908.0,7147.0
1679064200859881,105264.0,133893.0,7140.0
1679064200869881,105223.0,133872.0,7137.0
1679064200879881,105194.0,133874.0,7143.0
1679064200888881,105169.0,133885.0,7135.0
1679064200899881,105160.0,133909.0,7130.0
1679064200909881,105160.0,133909.0,7133.0
1679064200919880,105142.0,133895.0,7127.0
1679064200928881,105145.0,133920.0,7114.0
1679064200939880,105150.0,133900.0,7125.0
1679064200949880,105150.0,133953.0,7122.0
1679064200959880,105143.0,133847.0,7131.0
1679064200968881,105159.0,133853.0,7131.0
1679064200979881,105129.0,133896.0,7130.0
1679064200989881,105120.0,133910.0,7119.0
1679064200999881,105118.0,133911.0,7090.0
1679064201009881,105125.0,133938.0,7093.0
1679064201018881,105120.0,133931.0,7121.0
1679064201029881,105111.0,133924.0,7123.0
1679064201040881,105110.0,133905.0,7121.0
1679064201048880,105112.0,133920.0,7114.0
1679064201058880,105093.0,133927.0,7126.0
1679064201069880,105111.0,133919.0,7127.0
1679064201079880,105132.0,133872.0,7132.0
1679064201088880,105136.0,133884.0,7117.0
1679064201098880,105139.0,133866.0,7119.0
1679064201108880,105123.0,133872.0,7104.0
1679064201119880,105122.0,133873.0,7098.0
1679064201128880,105100.0,133885.0,7081.0
1679064201140880,105085.0,133898.0,7066.0
1679064201149881,105052.0,133902.0,7072.0
1679064201159881,105065.0,133890.0,7117.0
1679064201169881,105058.0,133907.0,7098.0
1679064201179881,105042.0,133896.0,7106.0
1679064201188881,105022.0,133917.0,7102.0
1679064201199881,105037.0,133893.0,7095.0
1679064201209881,105045.0,133884.0,7085.0
1679064201218881,105024.0,133905.0,7088.0
1679064201229881,105003.0,133917.0,7065.0
1679064201238881,104952.0,133926.0,7073.0
1679064201249881,104918.0,133929.0,7068.0
1679064201258881,104913.0,133963.0,7052.0
1679064201269881,104862.0,134012.0,7012.0
1679064201278881,104769.0,134068.0,6985.0
1679064201289881,104629.0,134179.0,6987.0
1679064201298881,104521.0,134292.0,6953.0
1679064201309881,104428.0,134421.0,6927.0
1679064201318881,104394.0,134513.0,6893.0
1679064201329881,104335.0,134600.0,6870.0
1679064201338881,104285.0,134649.0,6840.0
1679064201349881,104269.0,134695.0,6832.0
1679064201358881,104257.0,134647.0,6828.0
1679064201369881,104256.0,134609.0,6846.0
1679064201378881,104272.0,134556.0,6856.0
1679064201389881,104306.0,134468.0,6881.0
1679064201398881,104356.0,134378.0,6904.0
1679064201408881,104425.0,134298.0,6921.0
1679064201419881,104473.0,134241.0,6930.0
1679064201428881,104523.0,134191.0,6949.0
1679064201439881,104579.0,134144.0,6947.0
1679064201449881,104623.0,134121.0,6962.0
1679064201459881,104659.0,134108.0,7000.0
1679064201469881,104699.0,134094.0,7017.0
1679064201478881,104755.0,134075.0,7022.0
1679064201488881,104781.0,134061.0,7024.0
1679064201499881,104824.0,134026.0,7025.0
1679064201508881,104863.0,134027.0,7025.0
1679064201518881,104900.0,134020.0,7050.0
1679064201527881,104922.0,134014.0,7054.0
1679064201538881,104903.0,134040.0,7056.0
1679064201547881,104905.0,134057.0,7049.0
1679064201557881,104883.0,134043.0,7071.0
1679064201567881,104863.0,134041.0,7062.0
1679064201578881,104882.0,134079.0,7053.0
1679064201587881,104902.0,134094.0,7047.0
1679064201597881,104924.0,134101.0,7049.0
1679064201607881,104935.0,134096.0,7055.0
1679064201618881,104933.0,134068.0,7061.0
1679064201627881,104947.0,134076.0,7066.0
1679064201638881,104940.0,134097.0,7069.0
1679064201647881,104966.0,134109.0,7066.0
1679064201658881,104975.0,134073.0,7054.0
1679064201668881,105001.0,134052.0,7079.0
1679064201678881,105023.0,134106.0,7080.0
1679064201687881,105052.0,134125.0,7081.0
1679064201699881,105074.0,134127.0,7091.0
1679064201709881,105127.0,134135.0,7095.0
1679064201718881,105133.0,134133.0,7091.0
1679064201729881,105190.0,134157.0,7122.0
1679064201738881,105241.0,134178.0,7118.0
1679064201749881,105277.0,134200.0,7129.0
1679064201758881,105303.0,134191.0,7135.0
1679064201769881,105337.0,134215.0,7139.0
1679064201778881,105366.0,134207.0,7147.0
1679064201789881,105406.0,134187.0,7145.0
1679064201798881,105423.0,134205.0,7139.0
1679064201809881,105440.0,134218.0,7137.0
1679064201818881,105424.0,134194.0,7144.0
1679064201828881,105410.0,134243.0,7132.0
1679064201838881,105389.0,134228.0,7125.0
1679064201848881,105352.0,134240.0,7124.0
1679064201858881,105333.0,134251.0,7117.0
1679064201868881,105316.0,134250.0,7081.0
1679064201878881,105294.0,134238.0,7067.0
1679064201888881,105251.0,134234.0,7070.0
1679064201899881,105243.0,134265.0,7108.0
1679064201908881,105223.0,134230.0,7099.0
1679064201919881,105179.0,134173.0,7082.0
1679064201928881,105140.0,134180.0,7072.0
1679064201939881,105083.0,134236.0,7068.0
1679064201948881,105056.0,134282.0,7055.0
1679064201959881,105020.0,134281.0,7010.0
1679064201968881,104997.0,134222.0,7039.0
1679064201978881,104990.0,134273.0,7014.0
1679064201989881,104968.0,134250.0,7021.0
1679064201998881,104955.0,134247.0,7042.0
1679064202008881,104953.0,134246.0,7040.0
1679064202018881,104933.0,134229.0,7030.0
1679064202029881,104932.0,134231.0,7044.0
1679064202038881,104959.0,134182.0,7018.0
1679064202049881,104927.0,134201.0,7025.0
1679064202058881,104921.0,134167.0,7010.0
1679064202069881,104910.0,134229.0,7008.0
1679064202079881,104900.0,134213.0,7015.0
1679064202088881,104890.0,134197.0,7019.0
1679064202098881,104889.0,134188.0,7023.0
1679064202109881,104892.0,134156.0,7030.0
1679064202119881,104949.0,134139.0,7034.0
1679064202128881,104936.0,134106.0,7010.0
1679064202138881,104951.0,134082.0,7010.0
1679064202150881,104924.0,134078.0,7028.0
1679064202159881,104933.0,134095.0,7074.0
1679064202168881,104931.0,134075.0,7033.0
1679064202178881,104924.0,134076.0,7018.0
1679064202188881,104830.0,134090.0,7039.0
1679064202199881,104821.0,134139.0,7029.0
1679064202208881,104782.0,134181.0,7008.0
1679064202218881,104738.0,134222.0,6974.0
1679064202228881,104641.0,134301.0,6949.0
1679064202239881,104560.0,134434.0,6912.0
1679064202249881,104466.0,134498.0,6884.0
1679064202258881,104387.0,134633.0,6845.0
1679064202268881,104327.0,134745.0,6833.0
1679064202278881,104312.0,134818.0,6819.0
1679064202289881,104310.0,134821.0,6791.0
1679064202298881,104288.0,134782.0,6804.0
1679064202308881,104273.0,134767.0,6827.0
1679064202318881,104290.0,134668.0,6832.0
1679064202329881,104304.0,134584.0,6838.0
1679064202338881,104324.0,134514.0,6861.0
1679064202350881,104359.0,134440.0,6885.0
1679064202358881,104411.0,134381.0,6886.0
1679064202369881,104431.0,134283.0,6911.0
1679064202378881,104470.0,134243.0,6918.0
1679064202388881,104501.0,134212.0,6932.0
1679064202398881,104529.0,134178.0,6910.0
1679064202408881,104551.0,134139.0,6955.0
1679064202419881,104625.0,134061.0,6983.0
1679064202428881,104690.0,134030.0,7003.0
1679064202439881,104756.0,133931.0,7019.0
1679064202448881,104829.0,133923.0,7043.0
1679064202459881,104907.0,133926.0,7044.0
1679064202468881,104956.0,133894.0,7072.0
1679064202478881,104992.0,133916.0,7089.0
1679064202488881,105022.0,133915.0,7048.0
1679064202498881,105014.0,133884.0,7061.0
1679064202508881,104988.0,133874.0,7076.0
1679064202518881,105001.0,133913.0,7081.0
1679064202528881,104990.0,133907.0,7083.0
1679064202538881,104984.0,133874.0,7087.0
1679064202548881,104969.0,133843.0,7097.0
1679064202558881,104960.0,133826.0,7070.0
1679064202568881,104940.0,133865.0,7078.0
1679064202578881,104923.0,133858.0,7076.0
1679064202588881,104924.0,133801.0,7084.0
1679064202598881,104936.0,133781.0,7084.0
1679064202608881,104940.0,133782.0,7092.0
1679064202618881,104950.0,133825.0,7075.0
1679064202628881,104957.0,133809.0,7067.0
1679064202638881,104899.0,133837.0,7095.0
1679064202648881,104896.0,133829.0,7088.0
1679064202659881,104918.0,133834.0,7072.0
1679064202668881,104909.0,133778.0,7076.0
1679064202678881,104899.0,133809.0,7068.0
1679064202688881,104881.0,133800.0,7058.0
1679064202699881,104860.0,133824.0,7060.0
1679064202708881,104828.0,133838.0,7049.0
1679064202717881,104821.0,133885.0,7046.0
1679064202728881,104829.0,133853.0,7025.0
1679064202738881,104830.0,133869.0,7020.0
1679064202749881,104835.0,133844.0,7021.0
1679064202757881,104817.0,133835.0,7059.0
1679064202768880,104855.0,133818.0,7039.0
1679064202778881,104848.0,133799.0,7056.0
1679064202789881,104859.0,133812.0,7047.0
1679064202798881,104867.0,133762.0,7064.0
1679064202808881,104855.0,133779.0,7064.0
1679064202818881,104857.0,133798.0,7061.0
1679064202829881,104857.0,133776.0,7073.0
1679064202838881,104859.0,133785.0,7064.0
1679064202847881,104884.0,133760.0,7039.0
1679064202858881,104890.0,133766.0,7043.0
1679064202868881,104883.0,133745.0,7075.0
1679064202878881,104905.0,133755.0,7061.0
1679064202888881,104917.0,133729.0,7086.0
1679064202898881,104942.0,133736.0,7088.0
1679064202908881,104982.0,133703.0,7098.0
1679064202919880,105015.0,133708.0,7114.0
1679064202928881,105050.0,133699.0,7126.0
1679064202938881,105099.0,133690.0,7106.0
1679064202948881,105126.0,133700.0,7087.0
1679064202958881,105135.0,133698.0,7111.0
1679064202968881,105139.0,133701.0,7099.0
1679064202978881,105122.0,133698.0,7126.0
1679064202988881,105123.0,133718.0,7126.0
1679064202998881,105069.0,133711.0,7114.0
1679064203008881,104968.0,133716.0,7095.0
1679064203018881,104842.0,133734.0,7069.0
1679064203028881,104698.0,133778.0,7018.0
1679064203038881,104555.0,133794.0,6987.0
1679064203048881,104427.0,133876.0,6949.0
1679064203058881,104323.0,133982.0,6912.0
1679064203068881,104241.0,134037.0,6895.0
1679064203078881,104184.0,134055.0,6881.0
1679064203087881,104164.0,134094.0,6872.0
1679064203098881,104145.0,134103.0,6861.0
1679064203108881,104157.0,134081.0,6852.0
1679064203118881,104174.0,134058.0,6871.0
1679064203128881,104197.0,134021.0,6882.0
1679064203138881,104239.0,133976.0,6875.0
1679064203148881,104259.0,133913.0,6926.0
1679064203158881,104334.0,133829.0,6938.0
1679064203168881,104385.0,133827.0,6956.0
1679064203178881,104432.0,133725.0,6965.0
1679064203188881,104497.0,133717.0,6985.0
1679064203198881,104539.0,133709.0,7008.0
1679064203208881,104535.0,133700.0,7006.0
1679064203217881,104584.0,133700.0,7027.0
1679064203228881,104667.0,133676.0,7046.0
1679064203238881,104774.0,133657.0,7055.0
1679064203249881,104842.0,133621.0,7064.0
1679064203257881,104902.0,133605.0,7082.0
1679064203268880,104969.0,133619.0,7096.0
1679064203278880,105011.0,133625.0,7107.0
1679064203289880,105021.0,133641.0,7117.0
1679064203297880,105016.0,133611.0,7110.0
1679064203308880,104993.0,133617.0,7115.0
1679064203318881,104974.0,133611.0,7104.0
1679064203328881,104935.0,133627.0,7060.0
1679064203338881,104872.0,133648.0,7068.0
1679064203348881,104833.0,133633.0,7054.0
1679064203358881,104786.0,133591.0,7061.0
1679064203368881,104784.0,133638.0,7048.0
1679064203378881,104724.0,133621.0,7043.0
1679064203388881,104727.0,133631.0,7010.0
1679064203397881,104701.0,133630.0,7016.0
1679064203408881,104705.0,133617.0,7024.0
1679064203418881,104704.0,133611.0,7055.0
1679064203428881,104714.0,133611.0,7056.0
1679064203437881,104713.0,133582.0,7051.0
1679064203448881,104718.0,133596.0,7059.0
1679064203458881,104716.0,133587.0,7052.0
1679064203468881,104770.0,133577.0,7006.0
1679064203477881,104768.0,133555.0,7074.0
1679064203488880,104801.0,133552.0,7083.0
1679064203498881,104813.0,133552.0,7094.0
1679064203508881,104848.0,133561.0,7092.0
1679064203518881,104921.0,133524.0,7098.0
1679064203528881,104942.0,133524.0,7098.0
1679064203538881,104968.0,133541.0,7111.0
1679064203547881,104988.0,133515.0,7109.0
1679064203559881,104999.0,133513.0,7091.0
1679064203568881,105020.0,133527.0,7106.0
1679064203578881,105021.0,133510.0,7123.0
1679064203587881,105049.0,133515.0,7137.0
1679064203598881,105073.0,133535.0,7119.0
1679064203607881,105101.0,133511.0,7128.0
1679064203618881,105108.0,133508.0,7112.0
1679064203628881,105058.0,133533.0,7140.0
1679064203638881,105062.0,133530.0,7143.0
1679064203647881,105062.0,133514.0,7123.0
1679064203659881,105078.0,133523.0,7123.0
1679064203667881,105072.0,133510.0,7129.0
1679064203678881,105039.0,133504.0,7136.0
1679064203688881,105089.0,133494.0,7123.0
1679064203698881,105072.0,133474.0,7126.0
1679064203708881,105059.0,133488.0,7121.0
1679064203717881,105073.0,133469.0,7140.0
1679064203728881,105060.0,133491.0,7124.0
1679064203738881,105030.0,133476.0,7127.0
1679064203748881,105064.0,133491.0,7120.0
1679064203757881,105042.0,133470.0,7109.0
1679064203768881,105041.0,133485.0,7116.0
1679064203777881,105029.0,133466.0,7128.0
1679064203788881,104961.0,133467.0,7117.0
1679064203797881,104907.0,133474.0,7103.0
1679064203808881,104850.0,133493.0,7068.0
1679064203818881,104707.0,133524.0,7052.0
1679064203828881,104539.0,133555.0,7009.0
1679064203837881,104387.0,133610.0,6962.0
1679064203848881,104253.0,133653.0,6939.0
1679064203858881,104138.0,133740.0,6894.0
1679064203868881,104064.0,133752.0,6874.0
1679064203878881,104025.0,133754.0,6855.0
1679064203888881,104017.0,133779.0,6844.0
1679064203898881,104010.0,133777.0,6857.0
1679064203908881,104031.0,133759.0,6863.0
1679064203918881,104050.0,133751.0,6860.0
1679064203927881,104045.0,133746.0,6879.0
1679064203938881,104100.0,133707.0,6885.0
1679064203948881,104110.0,133689.0,6903.0
1679064203958881,104169.0,133641.0,6914.0
1679064203967881,104212.0,133604.0,6929.0
1679064203978881,104301.0,133563.0,6911.0
1679064203987881,104319.0,133550.0,6966.0
1679064203998881,104384.0,133524.0,6985.0
1679064204007881,104440.0,133485.0,6988.0
1679064204018881,104508.0,133454.0,6999.0
1679064204028881,104576.0,133411.0,7009.0
1679064204038881,104644.0,133424.0,7036.0
1679064204047881,104700.0,133420.0,7038.0
1679064204057881,104741.0,133433.0,7021.0
1679064204068881,104790.0,133422.0,7033.0
1679064204077881,104822.0,133407.0,7077.0
1679064204087881,104824.0,133386.0,7064.0
1679064204097881,104808.0,133388.0,7073.0
1679064204108881,104787.0,133423.0,7067.0
1679064204118881,104763.0,133453.0,7051.0
1679064204128881,104717.0,133420.0,7051.0
1679064204137881,104685.0,133356.0,7041.0
1679064204148881,104637.0,133366.0,7043.0
1679064204158881,104608.0,133364.0,7033.0
1679064204168881,104579.0,133399.0,7026.0
1679064204177881,104570.0,133423.0,7024.0
1679064204188881,104569.0,133422.0,7020.0
1679064204198881,104567.0,133428.0,7014.0
1679064204208881,104556.0,133416.0,7024.0
1679064204217881,104570.0,133408.0,7015.0
1679064204227881,104551.0,133413.0,7005.0
1679064204238881,104572.0,133425.0,7009.0
1679064204248881,104572.0,133412.0,7024.0
1679064204258881,104587.0,133371.0,7015.0
1679064204267881,104607.0,133344.0,7030.0
1679064204278881,104612.0,133395.0,7031.0
1679064204288881,104628.0,133332.0,7033.0
1679064204298881,104641.0,133342.0,7044.0
1679064204307881,104643.0,133340.0,7050.0
1679064204318881,104663.0,133361.0,7045.0
1679064204328881,104651.0,133366.0,7045.0
1679064204338881,104663.0,133354.0,7052.0
1679064204347881,104686.0,133365.0,7045.0
1679064204357881,104682.0,133355.0,7049.0
1679064204368881,104710.0,133327.0,7034.0
1679064204378881,104723.0,133302.0,7064.0
1679064204387881,104728.0,133302.0,7061.0
1679064204398881,104737.0,133327.0,7063.0
1679064204408881,104738.0,133337.0,7059.0
1679064204418881,104746.0,133307.0,7044.0
1679064204427881,104709.0,133312.0,7052.0
1679064204437881,104688.0,133327.0,7056.0
1679064204448881,104696.0,133312.0,7066.0
1679064204458881,104694.0,133291.0,7060.0
1679064204467881,104744.0,133242.0,7055.0
1679064204477881,104765.0,133325.0,7068.0
1679064204488881,104792.0,133319.0,7066.0
1679064204498881,104805.0,133219.0,7090.0
1679064204507881,104812.0,133240.0,7089.0
1679064204517881,104818.0,133243.0,7086.0
1679064204527881,104812.0,133294.0,7066.0
1679064204538881,104816.0,133274.0,7056.0
1679064204547881,104802.0,133283.0,7055.0
1679064204557881,104774.0,133290.0,7040.0
1679064204568881,104719.0,133311.0,7011.0
1679064204578881,104600.0,133307.0,7030.0
1679064204587881,104481.0,133353.0,6973.0
1679064204597881,104307.0,133412.0,6964.0
1679064204607881,104193.0,133459.0,6940.0
1679064204618881,104086.0,133527.0,6911.0
1679064204628881,104006.0,133591.0,6873.0
1679064204638881,103974.0,133642.0,6850.0
1679064204647881,103952.0,133627.0,6844.0
1679064204658881,103955.0,133663.0,6847.0
1679064204668881,103941.0,133640.0,6841.0
1679064204678881,103980.0,133650.0,6858.0
1679064204687881,104003.0,133583.0,6865.0
1679064204698881,104043.0,133569.0,6884.0
1679064204708881,104086.0,133506.0,6895.0
1679064204717881,104145.0,133461.0,6914.0
1679064204727881,104192.0,133437.0,6928.0
1679064204738880,104237.0,133408.0,6947.0
1679064204748880,104291.0,133385.0,6954.0
1679064204757881,104340.0,133378.0,6975.0
1679064204768881,104381.0,133313.0,6964.0
1679064204777881,104457.0,133340.0,6993.0
1679064204788881,104503.0,133302.0,7030.0
1679064204797881,104570.0,133286.0,7043.0
1679064204807881,104647.0,133305.0,7052.0
1679064204817881,104689.0,133272.0,7057.0
1679064204828881,104737.0,133281.0,7065.0
1679064204837881,104745.0,133277.0,7064.0
1679064204847881,104740.0,133264.0,7065.0
1679064204857881,104720.0,133245.0,7055.0
1679064204869881,104691.0,133240.0,7056.0
1679064204878881,104651.0,133253.0,7041.0
1679064204887881,104614.0,133299.0,7036.0
1679064204897881,104568.0,133303.0,7025.0
1679064204908881,104520.0,133311.0,7022.0
1679064204918881,104502.0,133307.0,7012.0
1679064204927881,104473.0,133317.0,7012.0
1679064204937881,104452.0,133303.0,7008.0
1679064204947881,104444.0,133307.0,7007.0
1679064204958881,104456.0,133307.0,6946.0
1679064204967881,104421.0,133302.0,6967.0
1679064204977881,104452.0,133316.0,6988.0
1679064204987881,104432.0,133282.0,7013.0
1679064204998881,104441.0,133284.0,7019.0
1679064205007881,104492.0,133283.0,7007.0
1679064205017881,104508.0,133270.0,7022.0
1679064205027881,104535.0,133274.0,7006.0
1679064205037881,104526.0,133253.0,7002.0
1679064205047881,104544.0,133257.0,7019.0
1679064205057881,104554.0,133225.0,7030.0
1679064205068881,104583.0,133256.0,7037.0
1679064205077881,104602.0,133254.0,7036.0
1679064205087881,104593.0,133213.0,7057.0
1679064205097881,104658.0,133243.0,7044.0
1679064205108881,104685.0,133222.0,7052.0
1679064205117881,104709.0,133212.0,7070.0
1679064205128881,104725.0,133237.0,7081.0
1679064205137881,104723.0,133199.0,7076.0
1679064205147881,104727.0,133193.0,7077.0
1679064205158881,104737.0,133202.0,7027.0
1679064205167881,104716.0,133198.0,7060.0
1679064205177881,104718.0,133208.0,7056.0
1679064205187881,104737.0,133202.0,7053.0
1679064205197881,104740.0,133193.0,7055.0
1679064205207881,104739.0,133184.0,7059.0
1679064205217881,104697.0,133193.0,7079.0
1679064205227881,104680.0,133192.0,7079.0
1679064205238880,104686.0,133194.0,7073.0
1679064205247881,104730.0,133156.0,7088.0
1679064205257881,104738.0,133155.0,7072.0
1679064205267881,104741.0,133145.0,7076.0
1679064205278880,104748.0,133148.0,7075.0
1679064205287881,104749.0,133176.0,7082.0
1679064205297881,104748.0,133195.0,7075.0
1679064205307881,104751.0,133137.0,7074.0
1679064205318881,104765.0,133164.0,7075.0
1679064205328881,104723.0,133174.0,7073.0
1679064205336881,104646.0,133187.0,7033.0
1679064205347880,104526.0,133228.0,6991.0
1679064205357880,104361.0,133276.0,6948.0
1679064205368880,104216.0,133354.0,6928.0
1679064205377880,104069.0,133421.0,6895.0
1679064205387880,103914.0,133483.0,6868.0
1679064205397880,103828.0,133576.0,6835.0
1679064205408880,103778.0,133631.0,6821.0
1679064205417880,103754.0,133663.0,6809.0
1679064205427880,103758.0,133667.0,6820.0
1679064205437880,103753.0,133649.0,6821.0
1679064205448880,103798.0,133648.0,6811.0
1679064205457880,103821.0,133604.0,6826.0
1679064205467880,103885.0,133579.0,6843.0
1679064205477881,103916.0,133544.0,6849.0
1679064205488881,103947.0,133502.0,6866.0
1679064205497881,103994.0,133473.0,6880.0
1679064205507881,104035.0,133415.0,6893.0
1679064205517881,104080.0,133379.0,6907.0
1679064205527881,104115.0,133366.0,6905.0
1679064205538881,104159.0,133323.0,6935.0
1679064205546881,104191.0,133310.0,6947.0
1679064205557881,104250.0,133294.0,6944.0
1679064205567880,104299.0,133292.0,6979.0
1679064205578880,104351.0,133195.0,6999.0
1679064205586880,104415.0,133212.0,7004.0
1679064205597880,104469.0,133228.0,7015.0
1679064205607880,104499.0,133202.0,7023.0
1679064205618880,104504.0,133197.0,7019.0
1679064205628880,104525.0,133188.0,7018.0
1679064205637880,104521.0,133196.0,7031.0
1679064205647880,104496.0,133200.0,7018.0
1679064205658881,104476.0,133222.0,7017.0
1679064205668881,104458.0,133229.0,7011.0
1679064205676881,104410.0,133240.0,6989.0
1679064205687881,104393.0,133201.0,6986.0
1679064205697881,104368.0,133230.0,6989.0
1679064205708881,104370.0,133226.0,6942.0
1679064205716880,104345.0,133246.0,6946.0
1679064205727880,104305.0,133273.0,6988.0
1679064205737880,104312.0,133249.0,6989.0
1679064205748880,104320.0,133249.0,6982.0
1679064205756880,104341.0,133246.0,6974.0
1679064205767880,104355.0,133239.0,6980.0
1679064205777880,104371.0,133235.0,6983.0
1679064205788880,104379.0,133208.0,6988.0
1679064205796880,104398.0,133208.0,7003.0
1679064205807880,104401.0,133193.0,7010.0
1679064205817880,104432.0,133150.0,7019.0
1679064205828880,104439.0,133136.0,7021.0
1679064205837881,104471.0,133127.0,7021.0
1679064205846881,104492.0,133169.0,7018.0
1679064205857881,104469.0,133158.0,7025.0
1679064205867881,104473.0,133164.0,7041.0
1679064205878881,104521.0,133125.0,7035.0
1679064205887881,104579.0,133155.0,7030.0
1679064205897881,104560.0,133167.0,7042.0
1679064205907881,104586.0,133154.0,7047.0
1679064205918881,104588.0,133130.0,7056.0
1679064205927881,104609.0,133148.0,7057.0
1679064205937881,104611.0,133139.0,7031.0
1679064205947881,104611.0,133143.0,7022.0
1679064205957881,104606.0,133142.0,7014.0
1679064205967881,104576.0,133145.0,7037.0
1679064205978881,104586.0,133141.0,7057.0
1679064205987881,104581.0,133142.0,7084.0
1679064205997881,104616.0,133125.0,7023.0
1679064206007881,104618.0,133137.0,7030.0
1679064206017881,104643.0,133146.0,7028.0
1679064206027881,104617.0,133123.0,7045.0
1679064206037881,104645.0,133126.0,7057.0
1679064206047881,104642.0,133127.0,7062.0
1679064206057881,104637.0,133113.0,7072.0
1679064206067881,104637.0,133132.0,7077.0
1679064206079881,104639.0,133115.0,7064.0
1679064206086881,104607.0,133108.0,7072.0
1679064206097881,104657.0,133131.0,7050.0
1679064206107881,104664.0,133125.0,7047.0
1679064206117881,104653.0,133115.0,7082.0
1679064206127881,104649.0,133107.0,7079.0
1679064206137881,104663.0,133097.0,7081.0
1679064206147881,104663.0,133088.0,7089.0
1679064206157881,104675.0,133087.0,7081.0
1679064206167881,104646.0,133114.0,7079.0
1679064206177881,104638.0,133136.0,7069.0
1679064206186881,104551.0,133138.0,7053.0
1679064206197881,104474.0,133168.0,6986.0
1679064206207881,104276.0,133218.0,6982.0
1679064206217881,104183.0,133316.0,6952.0
1679064206227881,104027.0,133345.0,6904.0
1679064206237881,103932.0,133475.0,6867.0
1679064206247881,103841.0,133508.0,6842.0
1679064206256881,103772.0,133588.0,6804.0
1679064206267881,103735.0,133632.0,6806.0
1679064206277881,103701.0,133689.0,6807.0
1679064206287881,103714.0,133656.0,6802.0
1679064206296881,103767.0,133639.0,6802.0
1679064206307881,103808.0,133601.0,6799.0
1679064206317881,103842.0,133542.0,6815.0
1679064206327881,103857.0,133508.0,6851.0
1679064206336881,103902.0,133448.0,6876.0
1679064206347881,103949.0,133410.0,6887.0
1679064206357881,104000.0,133384.0,6903.0
1679064206367881,104059.0,133358.0,6911.0
1679064206377881,104095.0,133331.0,6918.0
1679064206387881,104130.0,133323.0,6933.0
1679064206397881,104173.0,133289.0,6950.0
1679064206407881,104214.0,133270.0,6966.0
1679064206417881,104264.0,133227.0,6982.0
1679064206427881,104316.0,133185.0,6995.0
1679064206437881,104394.0,133165.0,6993.0
1679064206447881,104449.0,133185.0,7026.0
1679064206457881,104487.0,133170.0,7028.0
1679064206466881,104498.0,133165.0,7041.0
1679064206477881,104516.0,133149.0,7029.0
1679064206487881,104512.0,133159.0,7024.0
1679064206497881,104479.0,133157.0,7027.0
1679064206506881,104462.0,133192.0,7016.0
1679064206517881,104446.0,133180.0,6991.0
1679064206527881,104412.0,133204.0,6984.0
1679064206537881,104367.0,133226.0,7008.0
1679064206546881,104328.0,133202.0,6998.0
1679064206557881,104300.0,133243.0,7001.0
1679064206567881,104288.0,133236.0,6993.0
1679064206577881,104312.0,133225.0,6996.0
1679064206586881,104310.0,133187.0,6981.0
1679064206597881,104311.0,133208.0,6993.0
1679064206607881,104330.0,133191.0,6989.0
1679064206617881,104344.0,133204.0,7000.0
1679064206627881,104359.0,133148.0,7003.0
1679064206637881,104387.0,133159.0,7006.0
1679064206647881,104397.0,133165.0,7011.0
1679064206657881,104410.0,133170.0,7020.0
1679064206667881,104432.0,133164.0,7025.0
1679064206676881,104446.0,133166.0,7033.0
1679064206687881,104451.0,133188.0,7030.0
1679064206697881,104450.0,133180.0,7046.0
1679064206708881,104479.0,133182.0,7033.0
1679064206716880,104498.0,133124.0,7036.0
1679064206727880,104518.0,133123.0,7036.0
1679064206737881,104525.0,133110.0,7045.0
1679064206747881,104517.0,133133.0,7049.0
1679064206756881,104511.0,133190.0,7011.0
1679064206766881,104499.0,133212.0,7014.0
1679064206777881,104474.0,133255.0,6980.0
1679064206788881,104460.0,133279.0,6980.0
1679064206796881,104413.0,133301.0,7007.0
1679064206806881,104405.0,133322.0,7002.0
1679064206817880,104392.0,133350.0,6983.0
1679064206827880,104387.0,133373.0,6985.0
1679064206837880,104383.0,133352.0,6989.0
1679064206846881,104387.0,133355.0,6992.0
1679064206857880,104398.0,133371.0,6996.0
1679064206867880,104412.0,133385.0,6999.0
1679064206878880,104409.0,133396.0,6996.0
1679064206886880,104414.0,133421.0,6994.0
1679064206897880,104435.0,133455.0,6993.0
1679064206907880,104426.0,133433.0,6986.0
1679064206918881,104433.0,133428.0,6999.0
1679064206926881,104450.0,133449.0,7005.0
1679064206936881,104467.0,133465.0,6999.0
1679064206947881,104494.0,133471.0,6978.0
1679064206957881,104498.0,133471.0,7010.0
1679064206966881,104518.0,133513.0,7004.0
1679064206976881,104522.0,133497.0,7013.0
1679064206987881,104524.0,133508.0,7020.0
1679064206997881,104540.0,133535.0,7023.0
1679064207007881,104513.0,133569.0,7024.0
1679064207016881,104559.0,133544.0,7019.0
1679064207027881,104565.0,133578.0,7028.0
1679064207037881,104602.0,133567.0,7026.0
1679064207047881,104616.0,133557.0,7040.0
1679064207056881,104638.0,133564.0,7040.0
1679064207066881,104649.0,133573.0,7040.0
1679064207077880,104659.0,133575.0,6992.0
1679064207087880,104652.0,133579.0,7012.0
1679064207097881,104654.0,133565.0,7038.0
1679064207106881,104673.0,133606.0,7048.0
1679064207117881,104685.0,133621.0,7026.0
1679064207127881,104684.0,133618.0,7037.0
1679064207137881,104716.0,133635.0,7063.0
1679064207146881,104751.0,133612.0,7078.0
1679064207157881,104768.0,133617.0,7054.0
1679064207167881,104771.0,133656.0,7051.0
1679064207176881,104739.0,133690.0,7053.0
1679064207187881,104670.0,133744.0,7027.0
1679064207197881,104606.0,133805.0,7007.0
1679064207207881,104467.0,133914.0,6969.0
1679064207216881,104327.0,134024.0,6926.0
1679064207227881,104245.0,134072.0,6893.0
1679064207237881,104158.0,134177.0,6863.0
1679064207247881,104084.0,134276.0,6838.0
1679064207256881,104062.0,134350.0,6806.0
1679064207266881,104030.0,134377.0,6800.0
1679064207277881,104037.0,134398.0,6802.0
1679064207287881,104035.0,134384.0,6805.0
1679064207296881,104008.0,134371.0,6791.0
1679064207306881,104071.0,134327.0,6802.0
1679064207317881,104084.0,134275.0,6813.0
1679064207327881,104101.0,134235.0,6846.0
1679064207336881,104175.0,134151.0,6853.0
1679064207346881,104217.0,134123.0,6888.0
1679064207357881,104257.0,134049.0,6903.0
1679064207367881,104283.0,134030.0,6910.0
1679064207377881,104307.0,133966.0,6923.0
1679064207387881,104341.0,133898.0,6929.0
1679064207397881,104370.0,133904.0,6950.0
1679064207407881,104414.0,133841.0,6955.0
1679064207417881,104447.0,133823.0,6982.0
1679064207426881,104503.0,133765.0,6993.0
1679064207437881,104545.0,133771.0,7016.0
1679064207447881,104597.0,133748.0,7026.0
1679064207457881,104636.0,133728.0,7031.0
1679064207466881,104651.0,133725.0,7025.0
1679064207476881,104609.0,133722.0,7031.0
1679064207488881,104598.0,133743.0,7030.0
1679064207497881,104564.0,133752.0,7016.0
1679064207506881,104566.0,133780.0,7021.0
1679064207516881,104542.0,133794.0,7016.0
1679064207527881,104551.0,133789.0,7009.0
1679064207537881,104533.0,133780.0,7003.0
1679064207547881,104520.0,133789.0,7000.0
1679064207556881,104511.0,133805.0,6998.0
1679064207567881,104512.0,133810.0,6998.0
1679064207577881,104493.0,133829.0,6982.0
1679064207587881,104503.0,133834.0,6993.0
1679064207596881,104510.0,133812.0,6994.0
1679064207606881,104520.0,133780.0,7008.0
1679064207617881,104553.0,133804.0,7001.0
1679064207627881,104567.0,133789.0,7005.0
1679064207636881,104591.0,133769.0,6999.0
1679064207646881,104613.0,133746.0,7025.0
1679064207657881,104590.0,133782.0,7046.0
1679064207667881,104598.0,133770.0,7038.0
1679064207676881,104650.0,133776.0,7039.0
1679064207686881,104665.0,133772.0,7033.0
1679064207697881,104671.0,133791.0,7038.0
1679064207707881,104656.0,133789.0,7032.0
1679064207716881,104702.0,133790.0,7031.0
1679064207726881,104704.0,133776.0,7040.0
1679064207737881,104734.0,133758.0,7069.0
1679064207747881,104759.0,133785.0,7066.0
1679064207756881,104766.0,133772.0,7068.0
1679064207766881,104786.0,133770.0,7044.0
1679064207776881,104782.0,133765.0,7060.0
1679064207787881,104780.0,133787.0,7021.0
1679064207796881,104766.0,133794.0,7046.0
1679064207806881,104771.0,133782.0,7060.0
1679064207817881,104759.0,133833.0,7071.0
1679064207827881,104777.0,133810.0,7065.0
1679064207836881,104790.0,133817.0,7042.0
1679064207846881,104803.0,133807.0,7037.0
1679064207856881,104787.0,133798.0,7069.0
1679064207867881,104769.0,133811.0,7061.0
1679064207877881,104798.0,133809.0,7061.0
1679064207886881,104814.0,133832.0,7084.0
1679064207896881,104820.0,133830.0,7074.0
1679064207907881,104797.0,133824.0,7082.0
1679064207917881,104836.0,133814.0,7082.0
1679064207926881,104851.0,133826.0,7089.0
1679064207936881,104853.0,133840.0,7092.0
1679064207947881,104852.0,133821.0,7090.0
1679064207957881,104859.0,133805.0,7087.0
1679064207966881,104860.0,133842.0,7081.0
1679064207976881,104879.0,133877.0,7086.0
1679064207987881,104885.0,133869.0,7086.0
1679064207997881,104888.0,133879.0,7089.0
1679064208006881,104876.0,133852.0,7087.0
1679064208016881,104887.0,133881.0,7087.0
1679064208026881,104876.0,133901.0,7071.0
1679064208037881,104885.0,133915.0,7041.0
1679064208046881,104872.0,133932.0,7040.0
1679064208056881,104884.0,133942.0,7042.0
1679064208066881,104835.0,133959.0,7082.0
1679064208077881,104843.0,133965.0,7079.0
1679064208086881,104827.0,133943.0,7089.0
1679064208096881,104899.0,133971.0,7088.0
1679064208106881,104846.0,133953.0,7090.0
1679064208117881,104883.0,133946.0,7085.0
1679064208127881,104876.0,133931.0,7090.0
1679064208136881,104911.0,133926.0,7086.0
1679064208146881,104907.0,133935.0,7090.0
1679064208157881,104924.0,133943.0,7078.0
1679064208166881,104921.0,133922.0,7078.0
1679064208176881,104942.0,133932.0,7064.0
1679064208186881,104909.0,133942.0,7068.0
1679064208197881,104901.0,133979.0,7076.0
1679064208206881,104811.0,134012.0,7040.0
1679064208216881,104749.0,134068.0,7025.0
1679064208226881,104625.0,134159.0,7003.0
1679064208237881,104503.0,134244.0,6954.0
1679064208247881,104409.0,134342.0,6924.0
1679064208256881,104308.0,134450.0,6895.0
1679064208266881,104248.0,134467.0,6871.0
1679064208277881,104206.0,134557.0,6856.0
1679064208287881,104175.0,134575.0,6837.0
1679064208296881,104187.0,134581.0,6838.0
1679064208306881,104202.0,134624.0,6841.0
1679064208317880,104210.0,134576.0,6857.0
1679064208327880,104242.0,134520.0,6873.0
1679064208336881,104271.0,134425.0,6886.0
1679064208346881,104312.0,134349.0,6900.0
1679064208357881,104350.0,134288.0,6926.0
1679064208367881,104392.0,134244.0,6922.0
1679064208377881,104427.0,134249.0,6949.0
1679064208386881,104461.0,134206.0,6971.0
1679064208396881,104444.0,134181.0,6979.0
1679064208407881,104499.0,134152.0,6950.0
1679064208417881,104594.0,134102.0,6990.0
1679064208426881,104616.0,134031.0,7010.0
1679064208436881,104671.0,133993.0,7024.0
1679064208447881,104704.0,133982.0,7041.0
1679064208457881,104735.0,133972.0,7056.0
1679064208466881,104787.0,133973.0,7078.0
1679064208476881,104787.0,133940.0,7067.0
1679064208487881,104808.0,133960.0,7066.0
1679064208497881,104797.0,133973.0,7063.0
1679064208506881,104772.0,134016.0,7023.0
1679064208516881,104752.0,133989.0,7057.0
1679064208527881,104732.0,134009.0,7048.0
1679064208537881,104695.0,134028.0,7034.0
1679064208545881,104650.0,134085.0,7025.0
1679064208556881,104638.0,134111.0,7005.0
1679064208566881,104613.0,134159.0,6977.0
1679064208577880,104556.0,134187.0,7001.0
1679064208586881,104540.0,134222.0,6997.0
1679064208597880,104528.0,134221.0,6991.0
1679064208606881,104541.0,134170.0,6977.0
1679064208617880,104545.0,134207.0,6999.0
1679064208627880,104555.0,134161.0,7002.0
1679064208636880,104550.0,134126.0,6999.0
1679064208646880,104580.0,134136.0,7009.0
1679064208657880,104635.0,134123.0,7027.0
1679064208667880,104686.0,134139.0,7032.0
1679064208676880,104686.0,134104.0,7031.0
1679064208686880,104702.0,134105.0,7041.0
1679064208698881,104709.0,134121.0,7044.0
1679064208707881,104706.0,134095.0,7034.0
1679064208716881,104723.0,134057.0,7041.0
1679064208726881,104735.0,134078.0,7042.0
1679064208736881,104749.0,134082.0,7006.0
1679064208747881,104755.0,134067.0,7019.0
1679064208756881,104726.0,134061.0,7051.0
1679064208766881,104706.0,134076.0,7038.0
1679064208776881,104715.0,134104.0,7038.0
1679064208787881,104722.0,134124.0,7039.0
1679064208796881,104712.0,134141.0,7027.0
1679064208806881,104704.0,134134.0,7038.0
1679064208816881,104698.0,134124.0,7032.0
1679064208827880,104710.0,134122.0,7038.0
1679064208836881,104724.0,134082.0,7040.0
1679064208847880,104720.0,134108.0,7046.0
1679064208856881,104744.0,134122.0,7039.0
1679064208866881,104726.0,134105.0,7043.0
1679064208877880,104737.0,134110.0,7033.0
1679064208886880,104732.0,134094.0,7040.0
1679064208896881,104761.0,134087.0,7049.0
1679064208906881,104761.0,134081.0,7025.0
1679064208917881,104786.0,134058.0,7030.0
1679064208926881,104801.0,134028.0,7041.0
1679064208936881,104807.0,134047.0,7014.0
1679064208946881,104807.0,134049.0,7038.0
1679064208957881,104829.0,134052.0,7030.0
1679064208966881,104803.0,134022.0,7066.0
1679064208976881,104797.0,134049.0,7066.0
1679064208986881,104817.0,134000.0,7067.0
1679064208997881,104806.0,134027.0,7072.0
1679064209006881,104837.0,133999.0,7066.0
1679064209016881,104856.0,134066.0,7076.0
1679064209026881,104880.0,134039.0,7094.0
1679064209037881,104893.0,134053.0,7093.0
1679064209046881,104910.0,134040.0,7103.0
1679064209056881,104930.0,134033.0,7108.0
1679064209066881,104951.0,134034.0,7112.0
1679064209076881,104968.0,134031.0,7117.0
1679064209086881,105013.0,134023.0,7081.0
1679064209096881,104980.0,134041.0,7129.0
1679064209106881,105001.0,134060.0,7128.0
1679064209116881,105002.0,134041.0,7126.0
1679064209127881,104952.0,134118.0,7102.0
1679064209136881,104874.0,134140.0,7084.0
1679064209146881,104791.0,134250.0,7052.0
1679064209156881,104677.0,134347.0,7000.0
1679064209167881,104547.0,134439.0,6969.0
1679064209176881,104452.0,134502.0,6938.0
1679064209186881,104383.0,134582.0,6912.0
1679064209196881,104338.0,134639.0,6893.0
1679064209207881,104291.0,134683.0,6890.0
1679064209216881,104287.0,134697.0,6881.0
1679064209226881,104288.0,134646.0,6902.0
1679064209236881,104302.0,134556.0,6884.0
1679064209247881,104327.0,134512.0,6911.0
1679064209256881,104373.0,134453.0,6917.0
1679064209266881,104419.0,134467.0,6942.0
1679064209276881,104440.0,134425.0,6927.0
1679064209286881,104470.0,134362.0,6942.0
1679064209296881,104485.0,134332.0,6990.0
1679064209306881,104501.0,134293.0,6991.0
1679064209317881,104576.0,134281.0,6956.0
1679064209326881,104607.0,134212.0,7013.0
1679064209336881,104646.0,134173.0,7031.0
1679064209346881,104698.0,134124.0,7045.0
1679064209356881,104750.0,134147.0,7047.0
1679064209366881,104793.0,134116.0,7065.0
1679064209376881,104837.0,134078.0,7080.0
1679064209386881,104836.0,134067.0,7092.0
1679064209396881,104846.0,134061.0,7094.0
1679064209406881,104872.0,134057.0,7103.0
1679064209416881,104905.0,134047.0,7090.0
1679064209426881,104914.0,134063.0,7078.0
1679064209436881,104900.0,134055.0,7084.0
1679064209447881,104851.0,134094.0,7094.0
1679064209456881,104836.0,134127.0,7089.0
1679064209466881,104818.0,134118.0,7088.0
1679064209476881,104785.0,134140.0,7065.0
1679064209487881,104757.0,134160.0,7065.0
1679064209497881,104762.0,134171.0,7056.0
1679064209505880,104739.0,134185.0,7046.0
1679064209516880,104782.0,134198.0,7049.0
1679064209526880,104772.0,134188.0,7063.0
1679064209536880,104791.0,134200.0,7069.0
1679064209545880,104796.0,134162.0,7071.0
1679064209556880,104815.0,134156.0,7079.0
1679064209566880,104828.0,134135.0,7073.0
1679064209576880,104853.0,134128.0,7092.0
1679064209586880,104876.0,134116.0,7096.0
1679064209596880,104893.0,134111.0,7061.0
1679064209606880,104894.0,134113.0,7071.0
1679064209616881,104895.0,134111.0,7103.0
1679064209626881,104926.0,134120.0,7090.0
1679064209636881,104940.0,134130.0,7111.0
1679064209646881,104938.0,134122.0,7106.0
1679064209656881,104933.0,134139.0,7106.0
1679064209666881,104934.0,134130.0,7098.0
1679064209675881,104946.0,134131.0,7104.0
1679064209686881,104953.0,134122.0,7097.0
1679064209696881,104941.0,134115.0,7100.0
1679064209706881,104955.0,134120.0,7082.0
1679064209715881,104968.0,134112.0,7098.0
1679064209726881,104954.0,134111.0,7097.0
1679064209736881,104956.0,134124.0,7115.0
1679064209746881,104965.0,134139.0,7090.0
1679064209755881,104960.0,134130.0,7099.0
1679064209766881,104962.0,134117.0,7096.0
1679064209776881,104936.0,134126.0,7115.0
1679064209786881,104944.0,134129.0,7116.0
1679064209795881,104940.0,134112.0,7128.0
1679064209806881,104962.0,134109.0,7128.0
1679064209816881,105018.0,134099.0,7128.0
1679064209826881,105017.0,134111.0,7139.0
1679064209836881,105072.0,134121.0,7150.0
1679064209846881,105102.0,134114.0,7143.0
1679064209856881,105118.0,134111.0,7154.0
1679064209867880,105125.0,134087.0,7164.0
1679064209876881,105131.0,134083.0,7153.0
1679064209885881,105121.0,134098.0,7155.0
1679064209896880,105137.0,134100.0,7108.0
1679064209907880,105097.0,134104.0,7107.0
1679064209916880,105074.0,134070.0,7143.0
1679064209925881,105019.0,134140.0,7096.0
1679064209936880,104976.0,134176.0,7056.0
1679064209946880,104871.0,134231.0,7055.0
1679064209956880,104763.0,134302.0,7015.0
1679064209965880,104633.0,134386.0,6991.0
1679064209976881,104538.0,134498.0,6941.0
1679064209986881,104431.0,134597.0,6947.0
1679064209997881,104387.0,134648.0,6922.0
1679064210005880,104339.0,134684.0,6904.0
1679064210016880,104323.0,134711.0,6890.0
1679064210026880,104315.0,134651.0,6906.0
1679064210036880,104316.0,134640.0,6899.0
1679064210046880,104314.0,134603.0,6911.0
1679064210055880,104360.0,134539.0,6947.0
1679064210066880,104388.0,134466.0,6942.0
1679064210076880,104458.0,134407.0,6958.0
1679064210086880,104494.0,134366.0,6979.0
1679064210095880,104536.0,134326.0,6990.0
1679064210106880,104567.0,134288.0,7015.0
1679064210116880,104626.0,134261.0,7021.0
1679064210126880,104654.0,134225.0,7017.0
1679064210135880,104690.0,134173.0,7053.0
1679064210146880,104752.0,134160.0,7079.0
1679064210156881,104803.0,134109.0,7089.0
1679064210167881,104849.0,134105.0,7097.0
1679064210175881,104884.0,134098.0,7103.0
1679064210186880,104899.0,134082.0,7110.0
1679064210196880,104906.0,134026.0,7113.0
1679064210206880,104894.0,134035.0,7118.0
1679064210216880,104912.0,134084.0,7102.0
1679064210225880,104908.0,134039.0,7086.0
1679064210236880,104911.0,134054.0,7078.0
1679064210246880,104894.0,134062.0,7087.0
1679064210256880,104834.0,134070.0,7112.0
1679064210265880,104824.0,134072.0,7109.0
1679064210276880,104808.0,134108.0,7109.0
1679064210286880,104833.0,134097.0,7095.0
1679064210296880,104804.0,134109.0,7082.0
1679064210307880,104782.0,134097.0,7078.0
1679064210316880,104773.0,134126.0,7100.0
1679064210326880,104720.0,134116.0,7079.0
1679064210336881,104722.0,134123.0,7075.0
1679064210345881,104726.0,134119.0,7080.0
1679064210356881,104757.0,134075.0,7071.0
1679064210366881,104759.0,134082.0,7066.0
1679064210376881,104769.0,134093.0,7068.0
1679064210386881,104772.0,134100.0,7057.0
1679064210396881,104775.0,134078.0,7061.0
1679064210408881,104782.0,134087.0,7089.0
1679064210416881,104793.0,134064.0,7088.0
1679064210426881,104793.0,134038.0,7096.0
1679064210435881,104832.0,134031.0,7098.0
1679064210446881,104841.0,134037.0,7096.0
1679064210456881,104842.0,134030.0,7107.0
1679064210466881,104872.0,134025.0,7103.0
1679064210475881,104879.0,134027.0,7104.0
1679064210486881,104873.0,134030.0,7111.0
1679064210496881,104868.0,134000.0,7102.0
1679064210506881,104863.0,133962.0,7108.0
1679064210515881,104871.0,133980.0,7103.0
1679064210526881,104866.0,134027.0,7101.0
1679064210536881,104868.0,133968.0,7111.0
1679064210545881,104872.0,133953.0,7120.0
1679064210556881,104886.0,133994.0,7060.0
1679064210565881,104909.0,133989.0,7084.0
1679064210576881,104938.0,133987.0,7071.0
1679064210586881,104894.0,133978.0,7137.0
1679064210596881,104934.0,133989.0,7148.0
1679064210606881,104959.0,133968.0,7149.0
1679064210616881,105034.0,133962.0,7158.0
1679064210626881,105009.0,133969.0,7159.0
1679064210636880,105032.0,133987.0,7158.0
1679064210645881,105067.0,134013.0,7159.0
1679064210656880,105009.0,134030.0,7136.0
1679064210666880,104915.0,134043.0,7120.0
1679064210676880,104807.0,134107.0,7091.0
1679064210685881,104701.0,134177.0,7063.0
1679064210696881,104580.0,134239.0,7032.0
1679064210706881,104472.0,134269.0,6985.0
1679064210716881,104406.0,134370.0,6967.0
1679064210725881,104342.0,134364.0,6946.0
1679064210736881,104315.0,134405.0,6940.0
1679064210746881,104301.0,134430.0,6928.0
1679064210756881,104299.0,134454.0,6940.0
1679064210765881,104318.0,134426.0,6926.0
1679064210776881,104341.0,134410.0,6934.0
1679064210786881,104372.0,134357.0,6946.0
1679064210796881,104408.0,134353.0,6973.0
1679064210805881,104439.0,134297.0,6978.0
1679064210815881,104483.0,134248.0,7001.0
1679064210826881,104543.0,134214.0,6973.0
1679064210836881,104592.0,134180.0,7007.0
1679064210846881,104648.0,134128.0,7014.0
1679064210855881,104642.0,134122.0,7066.0
1679064210866881,104741.0,134076.0,7085.0
1679064210876881,104814.0,134054.0,7115.0
1679064210885881,104933.0,134033.0,7135.0
1679064210896881,105002.0,134019.0,7102.0
1679064210906881,105044.0,134006.0,7120.0
1679064210916881,105009.0,134032.0,7149.0
1679064210925881,105030.0,134050.0,7102.0
1679064210936881,105021.0,134026.0,7084.0
1679064210946881,105000.0,134029.0,7131.0
1679064210956881,104962.0,134051.0,7129.0
1679064210965881,104923.0,134066.0,7120.0
1679064210976881,104894.0,134050.0,7110.0
1679064210986881,104871.0,134049.0,7101.0
1679064210996881,104840.0,134085.0,7104.0
1679064211005881,104815.0,134128.0,7077.0
1679064211016881,104797.0,134131.0,7083.0
1679064211026881,104741.0,134088.0,7085.0
1679064211036881,104791.0,134116.0,7085.0
1679064211045881,104797.0,134120.0,7079.0
1679064211055881,104812.0,134114.0,7091.0
1679064211066881,104829.0,134127.0,7065.0
1679064211076881,104818.0,134132.0,7096.0
1679064211086881,104840.0,134149.0,7089.0
1679064211095881,104884.0,134138.0,7093.0
1679064211106881,104895.0,134139.0,7102.0
1679064211116881,104922.0,134113.0,7109.0
1679064211126881,104957.0,134090.0,7125.0
1679064211135881,104994.0,134074.0,7136.0
1679064211146880,105036.0,134058.0,7150.0
1679064211156880,105071.0,134076.0,7155.0
1679064211166880,105096.0,134093.0,7167.0
1679064211175881,105120.0,134093.0,7161.0
1679064211185881,105148.0,134097.0,7134.0
1679064211196880,105159.0,134104.0,7138.0
1679064211206880,105158.0,134107.0,7150.0
1679064211215880,105118.0,134127.0,7162.0
1679064211225880,105189.0,134115.0,7125.0
1679064211236881,105177.0,134118.0,7116.0
1679064211246881,105164.0,134114.0,7178.0
1679064211255881,105183.0,134099.0,7167.0
1679064211265881,105201.0,134054.0,7170.0
1679064211276881,105211.0,134093.0,7182.0
1679064211286881,105219.0,134106.0,7183.0
1679064211295881,105210.0,134090.0,7179.0
1679064211305881,105214.0,134102.0,7140.0
1679064211316881,105163.0,134117.0,7135.0
1679064211326881,105097.0,134138.0,7146.0
1679064211336881,104938.0,134128.0,7084.0
1679064211345881,104795.0,134180.0,7057.0
1679064211355881,104657.0,134237.0,7019.0
1679064211366881,104530.0,134329.0,6997.0
1679064211376881,104410.0,134355.0,6966.0
1679064211385881,104329.0,134422.0,6950.0
1679064211395881,104290.0,134437.0,6924.0
1679064211406881,104258.0,134450.0,6912.0
1679064211416881,104270.0,134488.0,6928.0
1679064211425881,104280.0,134439.0,6893.0
1679064211435881,104303.0,134377.0,6945.0
1679064211446881,104347.0,134337.0,6958.0
1679064211456881,104390.0,134296.0,6964.0
1679064211465881,104429.0,134211.0,6990.0
1679064211475881,104474.0,134189.0,6990.0
1679064211485881,104522.0,134215.0,6990.0
1679064211496881,104575.0,134186.0,6990.0
1679064211505881,104601.0,134159.0,7020.0
1679064211516881,104680.0,134160.0,7017.0
1679064211526881,104722.0,134123.0,7070.0
1679064211536881,104825.0,134097.0,7087.0
1679064211545881,104907.0,134056.0,7087.0
1679064211555881,104983.0,134044.0,7104.0
1679064211565881,105052.0,134078.0,7115.0
1679064211576881,105048.0,134062.0,7146.0
1679064211586881,105051.0,134049.0,7147.0
1679064211595881,105062.0,134081.0,7151.0
1679064211605881,105036.0,134061.0,7148.0
1679064211617881,105044.0,134103.0,7138.0
1679064211626881,105003.0,134079.0,7118.0
1679064211635881,104942.0,134122.0,7123.0
1679064211645881,104898.0,134111.0,7123.0
1679064211656881,104879.0,134124.0,7099.0
1679064211666881,104866.0,134123.0,7087.0
1679064211675881,104837.0,134142.0,7086.0
1679064211685881,104809.0,134145.0,7090.0
1679064211695881,104798.0,134147.0,7055.0
1679064211706881,104774.0,134153.0,7047.0
1679064211715881,104768.0,134161.0,7057.0
1679064211725881,104777.0,134156.0,7074.0
1679064211735881,104813.0,134161.0,7060.0
1679064211746881,104847.0,134149.0,7073.0
1679064211755881,104859.0,134145.0,7069.0
1679064211765881,104892.0,134157.0,7065.0
1679064211775881,104899.0,134151.0,7079.0
1679064211786881,104910.0,134184.0,7099.0
1679064211795881,104930.0,134095.0,7097.0
1679064211806881,104947.0,134102.0,7104.0
1679064211815881,104960.0,134136.0,7115.0
1679064211826881,104986.0,134159.0,7122.0
1679064211836881,105012.0,134181.0,7111.0
1679064211845881,105012.0,134193.0,7134.0
1679064211855881,105059.0,134206.0,7150.0
1679064211865881,105049.0,134205.0,7142.0
1679064211876881,105109.0,134221.0,7138.0
1679064211885881,105123.0,134235.0,7138.0
1679064211896880,105126.0,134244.0,7140.0
1679064211905881,105156.0,134223.0,7145.0
1679064211916880,105160.0,134218.0,7153.0
1679064211925881,105196.0,134220.0,7155.0
1679064211936880,105222.0,134238.0,7155.0
1679064211945881,105245.0,134220.0,7168.0
1679064211956881,105239.0,134225.0,7162.0
1679064211965881,105240.0,134245.0,7158.0
1679064211975881,105224.0,134286.0,7121.0
1679064211986881,105161.0,134296.0,7107.0
1679064211995881,105034.0,134322.0,7113.0
1679064212005881,104900.0,134376.0,7069.0
1679064212015881,104772.0,134439.0,7031.0
1679064212026881,104638.0,134524.0,6999.0
1679064212035881,104477.0,134549.0,6974.0
1679064212045881,104406.0,134611.0,6942.0
1679064212055881,104309.0,134679.0,6916.0
1679064212065881,104284.0,134720.0,6909.0
1679064212075881,104243.0,134763.0,6894.0
1679064212086881,104258.0,134763.0,6877.0
1679064212095881,104272.0,134753.0,6881.0
1679064212106881,104300.0,134689.0,6901.0
1679064212115881,104317.0,134697.0,6908.0
1679064212126881,104388.0,134648.0,6929.0
1679064212135881,104421.0,134529.0,6940.0
1679064212145881,104472.0,134549.0,6963.0
1679064212156881,104522.0,134504.0,6941.0
1679064212165881,104573.0,134480.0,6967.0
1679064212175881,104607.0,134444.0,7006.0
1679064212185881,104614.0,134435.0,7023.0
1679064212196881,104672.0,134401.0,7034.0
1679064212205881,104756.0,134354.0,7052.0
1679064212215881,104813.0,134349.0,7051.0
1679064212225881,104883.0,134305.0,7069.0
1679064212236881,104932.0,134331.0,7080.0
1679064212245881,104964.0,134307.0,7092.0
1679064212255881,105008.0,134308.0,7095.0
1679064212265881,105015.0,134293.0,7108.0
1679064212276881,104998.0,134296.0,7094.0
1679064212285881,104962.0,134322.0,7089.0
1679064212295881,104927.0,134272.0,7076.0
1679064212305881,104896.0,134280.0,7073.0
1679064212315881,104860.0,134297.0,7072.0
1679064212326881,104842.0,134341.0,7037.0
1679064212335881,104809.0,134324.0,7043.0
1679064212345881,104808.0,134357.0,7025.0
1679064212355881,104792.0,134349.0,7024.0
1679064212365881,104791.0,134354.0,7017.0
1679064212375881,104790.0,134349.0,7012.0
1679064212385881,104763.0,134362.0,7042.0
1679064212395881,104768.0,134359.0,7027.0
1679064212406881,104779.0,134364.0,7041.0
1679064212415881,104789.0,134376.0,7052.0
1679064212425881,104792.0,134315.0,7057.0
1679064212435881,104873.0,134363.0,7058.0
1679064212446881,104835.0,134358.0,7079.0
1679064212455881,104834.0,134331.0,7072.0
1679064212465881,104865.0,134323.0,7065.0
1679064212475881,104875.0,134285.0,7070.0
1679064212486881,104894.0,134301.0,7082.0
1679064212496881,104916.0,134287.0,7069.0
1679064212504881,104936.0,134302.0,7091.0
1679064212515881,104965.0,134311.0,7055.0
1679064212525881,104981.0,134318.0,7059.0
1679064212535881,104953.0,134315.0,7054.0
1679064212544881,104998.0,134302.0,7078.0
1679064212555881,105008.0,134306.0,7067.0
1679064212565881,104954.0,134309.0,7100.0
1679064212576881,104973.0,134308.0,7100.0
1679064212586881,104970.0,134314.0,7102.0
1679064212595881,105032.0,134284.0,7103.0
1679064212605881,105040.0,134289.0,7112.0
1679064212615881,105042.0,134297.0,7108.0
1679064212626881,105028.0,134285.0,7084.0
1679064212634880,104998.0,134309.0,7089.0
1679064212645880,105012.0,134280.0,7090.0
1679064212655880,104971.0,134314.0,7074.0
1679064212666880,104913.0,134324.0,7061.0
1679064212675881,104871.0,134357.0,7050.0
1679064212685881,104780.0,134452.0,7034.0
1679064212695881,104680.0,134523.0,6987.0
1679064212706881,104559.0,134617.0,6959.0
1679064212715881,104438.0,134724.0,6917.0
1679064212726881,104362.0,134818.0,6890.0
1679064212735881,104287.0,134916.0,6847.0
1679064212745881,104208.0,134977.0,6823.0
1679064212755881,104201.0,135013.0,6800.0
1679064212765881,104165.0,135054.0,6799.0
1679064212775881,104149.0,135026.0,6820.0
1679064212785881,104148.0,135020.0,6817.0
1679064212795881,104171.0,134980.0,6832.0
1679064212805881,104197.0,134944.0,6843.0
1679064212815881,104230.0,134907.0,6859.0
1679064212827881,104247.0,134822.0,6870.0
1679064212836881,104310.0,134752.0,6910.0
1679064212844881,104336.0,134691.0,6879.0
1679064212855881,104398.0,134652.0,6894.0
1679064212865881,104369.0,134596.0,6925.0
1679064212876881,104438.0,134545.0,6924.0
1679064212885881,104489.0,134523.0,6943.0
1679064212895881,104507.0,134482.0,6960.0
1679064212905881,104569.0,134442.0,6973.0
1679064212915881,104602.0,134423.0,6985.0
1679064212925881,104604.0,134412.0,6997.0
1679064212934881,104622.0,134361.0,6999.0
1679064212945881,104691.0,134342.0,6980.0
1679064212955881,104677.0,134337.0,7001.0
1679064212965881,104685.0,134352.0,6993.0
1679064212975881,104666.0,134348.0,6998.0
1679064212985881,104630.0,134394.0,6988.0
1679064212995881,104613.0,134435.0,6975.0
1679064213005881,104592.0,134445.0,6974.0
1679064213015881,104567.0,134472.0,6970.0
1679064213025881,104569.0,134460.0,6955.0
1679064213035881,104554.0,134478.0,6952.0
1679064213045881,104540.0,134455.0,6952.0
1679064213055881,104548.0,134423.0,6952.0
1679064213065881,104533.0,134395.0,6961.0
1679064213075881,104549.0,134452.0,6916.0
1679064213085881,104538.0,134460.0,6927.0
1679064213094881,104552.0,134458.0,6941.0
1679064213105881,104570.0,134421.0,6958.0
1679064213115881,104583.0,134417.0,6958.0
1679064213126881,104594.0,134408.0,6951.0
1679064213134880,104573.0,134398.0,6984.0
1679064213145880,104626.0,134377.0,6951.0
1679064213155880,104636.0,134378.0,6960.0
1679064213165880,104610.0,134377.0,6990.0
1679064213174880,104600.0,134381.0,6993.0
1679064213185880,104600.0,134382.0,6996.0
1679064213195880,104672.0,134383.0,7003.0
1679064213206880,104682.0,134378.0,7013.0
1679064213214881,104695.0,134378.0,7000.0
1679064213225881,104709.0,134347.0,7019.0
1679064213235881,104728.0,134326.0,7024.0
1679064213246881,104731.0,134317.0,7010.0
1679064213254881,104748.0,134302.0,7018.0
1679064213265880,104744.0,134303.0,7019.0
1679064213275880,104749.0,134304.0,7023.0
1679064213286880,104737.0,134338.0,7015.0
1679064213294880,104739.0,134365.0,7022.0
1679064213304880,104744.0,134343.0,7018.0
1679064213315880,104754.0,134344.0,6996.0
1679064213325880,104756.0,134326.0,6996.0
1679064213335880,104772.0,134307.0,6988.0
1679064213345880,104780.0,134302.0,7027.0
1679064213355880,104778.0,134305.0,7028.0
1679064213365880,104771.0,134319.0,7035.0
1679064213375880,104771.0,134299.0,6992.0
1679064213384880,104743.0,134307.0,7005.0
1679064213395881,104759.0,134328.0,7001.0
1679064213405881,104741.0,134321.0,7020.0
1679064213416881,104732.0,134272.0,7018.0
1679064213424881,104727.0,134283.0,6999.0
1679064213435881,104697.0,134328.0,7000.0
1679064213445881,104565.0,134442.0,6976.0
1679064213456880,104529.0,134535.0,6949.0
1679064213464880,104419.0,134620.0,6904.0
1679064213475880,104328.0,134740.0,6875.0
1679064213485880,104235.0,134841.0,6842.0
1679064213496880,104169.0,134945.0,6824.0
1679064213504880,104152.0,134992.0,6803.0
1679064213515880,104138.0,135030.0,6802.0
1679064213525880,104140.0,135051.0,6794.0
1679064213535880,104141.0,134993.0,6801.0
1679064213544880,104112.0,134914.0,6808.0
1679064213555880,104169.0,134902.0,6820.0
1679064213565880,104189.0,134853.0,6831.0
1679064213576881,104195.0,134813.0,6838.0
1679064213585881,104235.0,134764.0,6849.0
1679064213594881,104271.0,134715.0,6839.0
1679064213605881,104300.0,134667.0,6833.0
1679064213615881,104332.0,134628.0,6877.0
1679064213625881,104351.0,134575.0,6887.0
1679064213634881,104392.0,134534.0,6904.0
1679064213645881,104422.0,134472.0,6919.0
1679064213655881,104474.0,134441.0,6945.0
1679064213665881,104520.0,134408.0,6957.0
1679064213674881,104547.0,134367.0,6967.0
1679064213685881,104573.0,134335.0,6966.0
1679064213695881,104584.0,134353.0,6966.0
1679064213705881,104586.0,134290.0,6969.0
1679064213714881,104579.0,134280.0,6968.0
1679064213725881,104570.0,134297.0,6967.0
1679064213735881,104557.0,134374.0,6959.0
1679064213745881,104528.0,134405.0,6950.0
1679064213754881,104501.0,134363.0,6946.0
1679064213764881,104474.0,134443.0,6926.0
1679064213775881,104450.0,134440.0,6921.0
1679064213785881,104401.0,134459.0,6936.0
1679064213795881,104424.0,134470.0,6922.0
1679064213804881,104435.0,134445.0,6922.0
1679064213814881,104423.0,134425.0,6922.0
1679064213825881,104431.0,134461.0,6926.0
1679064213835881,104432.0,134452.0,6927.0
1679064213845881,104438.0,134411.0,6934.0
1679064213854881,104441.0,134460.0,6922.0
1679064213865881,104447.0,134424.0,6938.0
1679064213875881,104455.0,134387.0,6939.0
1679064213885881,104471.0,134352.0,6941.0
1679064213894881,104476.0,134340.0,6939.0
1679064213904881,104491.0,134335.0,6957.0
1679064213915881,104509.0,134325.0,6928.0
1679064213924881,104527.0,134319.0,6944.0
1679064213936881,104531.0,134292.0,6938.0
1679064213944881,104542.0,134300.0,6956.0
1679064213955881,104551.0,134298.0,6931.0
1679064213964881,104533.0,134291.0,6951.0
1679064213975880,104566.0,134249.0,6971.0
1679064213984881,104557.0,134254.0,6987.0
1679064213995880,104586.0,134233.0,6991.0
1679064214004881,104604.0,134223.0,7000.0
1679064214015880,104618.0,134218.0,6998.0
1679064214025880,104623.0,134209.0,6992.0
1679064214036880,104611.0,134229.0,6983.0
1679064214044880,104627.0,134230.0,7018.0
1679064214054880,104620.0,134203.0,6991.0
1679064214065880,104603.0,134230.0,6957.0
1679064214074880,104598.0,134223.0,6971.0
1679064214085880,104598.0,134224.0,6963.0
1679064214094880,104588.0,134220.0,6981.0
1679064214105880,104575.0,134213.0,6995.0
1679064214115881,104556.0,134215.0,6991.0
1679064214125881,104570.0,134223.0,6997.0
1679064214134881,104611.0,134226.0,6986.0
1679064214144881,104604.0,134222.0,6994.0
1679064214155881,104615.0,134205.0,6983.0
1679064214164881,104625.0,134173.0,6985.0
1679064214174881,104641.0,134163.0,6994.0
1679064214184881,104633.0,134165.0,7000.0
1679064214195881,104628.0,134173.0,7000.0
1679064214205881,104634.0,134170.0,7007.0
1679064214214881,104646.0,134139.0,7006.0
1679064214223881,104647.0,134105.0,7007.0
1679064214233881,104641.0,134120.0,7005.0
1679064214244881,104632.0,134159.0,6988.0
1679064214253881,104608.0,134141.0,6990.0
1679064214263881,104559.0,134204.0,6973.0
1679064214274881,104479.0,134290.0,6949.0
1679064214284881,104378.0,134339.0,6922.0
1679064214294881,104285.0,134435.0,6899.0
1679064214304881,104222.0,134514.0,6847.0
1679064214314881,104098.0,134592.0,6841.0
1679064214325881,104047.0,134656.0,6822.0
1679064214335881,104054.0,134700.0,6802.0
1679064214344881,104034.0,134743.0,6801.0
1679064214354881,103981.0,134738.0,6806.0
1679064214365881,104033.0,134736.0,6804.0
1679064214375881,104045.0,134720.0,6811.0
1679064214384881,104082.0,134648.0,6821.0
1679064214394881,104115.0,134609.0,6782.0
1679064214404881,104158.0,134546.0,6807.0
1679064214415881,104196.0,134496.0,6819.0
1679064214424881,104229.0,134465.0,6871.0
1679064214435881,104264.0,134446.0,6886.0
1679064214444881,104286.0,134380.0,6895.0
1679064214455881,104329.0,134339.0,6911.0
1679064214464881,104372.0,134307.0,6928.0
1679064214475881,104425.0,134275.0,6939.0
1679064214484881,104478.0,134229.0,6950.0
1679064214495881,104530.0,134157.0,6977.0
1679064214504881,104579.0,134138.0,6985.0
1679064214515881,104598.0,134154.0,6987.0
1679064214524881,104609.0,134169.0,6982.0
1679064214534881,104601.0,134166.0,6992.0
1679064214544881,104558.0,134210.0,6966.0
1679064214554881,104542.0,134210.0,6967.0
1679064214565881,104511.0,134246.0,6956.0
1679064214574881,104470.0,134242.0,6960.0
1679064214585881,104436.0,134258.0,6955.0
1679064214594881,104408.0,134250.0,6957.0
1679064214605881,104434.0,134274.0,6952.0
1679064214614881,104422.0,134273.0,6945.0
1679064214625881,104415.0,134281.0,6940.0
1679064214634881,104394.0,134277.0,6943.0
1679064214644881,104397.0,134286.0,6933.0
1679064214654881,104380.0,134305.0,6929.0
1679064214665881,104414.0,134275.0,6961.0
1679064214674881,104423.0,134273.0,6944.0
1679064214684881,104424.0,134245.0,6953.0
1679064214695881,104428.0,134244.0,6946.0
1679064214704881,104418.0,134229.0,6957.0
1679064214714881,104435.0,134242.0,6963.0
1679064214724881,104480.0,134230.0,6959.0
1679064214735881,104492.0,134235.0,6964.0
1679064214744881,104502.0,134217.0,6965.0
1679064214754881,104465.0,134211.0,6981.0
1679064214764881,104463.0,134204.0,6985.0
1679064214775881,104503.0,134208.0,6986.0
1679064214784881,104555.0,134150.0,6973.0
1679064214794881,104569.0,134145.0,6984.0
1679064214804881,104562.0,134148.0,6980.0
1679064214815881,104591.0,134154.0,6991.0
1679064214824881,104590.0,134115.0,6993.0
1679064214835881,104593.0,134126.0,6993.0
1679064214844881,104596.0,134133.0,6989.0
1679064214855881,104583.0,134176.0,6992.0
1679064214864881,104592.0,134168.0,6987.0
1679064214875881,104594.0,134183.0,6998.0
1679064214884881,104608.0,134185.0,6994.0
1679064214894881,104613.0,134179.0,7000.0
1679064214904881,104630.0,134175.0,6967.0
1679064214914881,104617.0,134185.0,6992.0
1679064214924881,104631.0,134199.0,6960.0
1679064214934881,104586.0,134198.0,7002.0
1679064214944881,104599.0,134191.0,7003.0
1679064214954881,104640.0,134177.0,7002.0
1679064214964881,104618.0,134196.0,7001.0
1679064214974881,104624.0,134204.0,6999.0
1679064214985881,104614.0,134200.0,7011.0
1679064214994881,104666.0,134216.0,7003.0
1679064215004881,104668.0,134225.0,7014.0
1679064215014881,104675.0,134228.0,7010.0
1679064215025881,104667.0,134247.0,7015.0
1679064215034881,104629.0,134253.0,6986.0
1679064215044881,104565.0,134346.0,6973.0
1679064215054881,104486.0,134426.0,6932.0
1679064215065881,104357.0,134526.0,6913.0
1679064215075881,104277.0,134651.0,6873.0
1679064215084881,104189.0,134764.0,6826.0
1679064215094881,104111.0,134853.0,6809.0
1679064215104881,104090.0,134945.0,6795.0
1679064215115881,104075.0,134985.0,6785.0
1679064215124881,104059.0,135006.0,6791.0
1679064215134881,104062.0,135035.0,6778.0
1679064215144881,104077.0,135008.0,6792.0
1679064215154881,104061.0,134988.0,6803.0
1679064215164881,104077.0,134941.0,6807.0
1679064215174881,104148.0,134916.0,6812.0
1679064215184881,104179.0,134868.0,6827.0
1679064215195881,104206.0,134813.0,6841.0
1679064215204881,104241.0,134714.0,6847.0
1679064215213881,104295.0,134709.0,6870.0
1679064215224881,104341.0,134655.0,6878.0
1679064215234881,104365.0,134627.0,6886.0
1679064215244881,104404.0,134584.0,6887.0
1679064215253881,104446.0,134530.0,6926.0
1679064215264881,104466.0,134495.0,6945.0
1679064215274881,104496.0,134450.0,6955.0
1679064215285881,104543.0,134461.0,6964.0
1679064215294881,104608.0,134435.0,6966.0
1679064215304881,104614.0,134398.0,6987.0
1679064215314881,104619.0,134417.0,6982.0
1679064215325881,104603.0,134395.0,6978.0
1679064215334881,104585.0,134424.0,6973.0
1679064215344881,104562.0,134450.0,6963.0
1679064215354881,104522.0,134439.0,6951.0
1679064215365881,104490.0,134518.0,6945.0
1679064215375881,104463.0,134497.0,6935.0
1679064215383881,104458.0,134524.0,6913.0
1679064215394881,104410.0,134536.0,6934.0
1679064215404881,104403.0,134515.0,6933.0
1679064215415881,104445.0,134468.0,6933.0
1679064215424881,104438.0,134468.0,6924.0
1679064215433881,104439.0,134473.0,6937.0
1679064215444881,104452.0,134506.0,6907.0
1679064215455881,104447.0,134513.0,6932.0
1679064215464881,104464.0,134508.0,6942.0
1679064215473881,104461.0,134469.0,6912.0
1679064215484881,104474.0,134461.0,6907.0
1679064215494881,104498.0,134447.0,6936.0
1679064215504881,104487.0,134423.0,6950.0
1679064215513881,104516.0,134408.0,6972.0
1679064215524881,104540.0,134399.0,6968.0
1679064215534881,104536.0,134400.0,6967.0
1679064215544880,104540.0,134406.0,6981.0
1679064215554881,104574.0,134432.0,6948.0
1679064215564881,104564.0,134405.0,6970.0
1679064215574881,104570.0,134419.0,6975.0
1679064215585881,104587.0,134430.0,6981.0
1679064215594881,104583.0,134417.0,6983.0
1679064215603881,104600.0,134394.0,6982.0
1679064215614881,104619.0,134384.0,6974.0
1679064215624881,104602.0,134386.0,6985.0
1679064215634881,104606.0,134382.0,6989.0
1679064215644881,104604.0,134366.0,6982.0
1679064215654881,104602.0,134396.0,6952.0
1679064215664881,104604.0,134386.0,6995.0
1679064215674881,104609.0,134389.0,6978.0
1679064215684881,104613.0,134347.0,6986.0
1679064215694881,104616.0,134377.0,6993.0
1679064215704881,104624.0,134360.0,6997.0
1679064215713881,104640.0,134341.0,6966.0
1679064215724881,104646.0,134348.0,6957.0
1679064215734881,104639.0,134357.0,6956.0
1679064215744881,104596.0,134358.0,7002.0
1679064215753881,104668.0,134355.0,6987.0
1679064215764881,104632.0,134353.0,6990.0
1679064215774881,104643.0,134362.0,6982.0
1679064215784881,104643.0,134342.0,7008.0
1679064215794881,104649.0,134349.0,7005.0
1679064215803881,104611.0,134345.0,7011.0
1679064215814881,104633.0,134340.0,7015.0
1679064215824881,104638.0,134337.0,7015.0
1679064215835881,104662.0,134334.0,7011.0
1679064215844881,104665.0,134316.0,7000.0
1679064215854881,104664.0,134359.0,6996.0
1679064215864881,104685.0,134283.0,7010.0
1679064215875881,104701.0,134317.0,7014.0
1679064215884881,104686.0,134322.0,7000.0
1679064215894881,104655.0,134385.0,6999.0
1679064215904881,104571.0,134453.0,6968.0
1679064215914881,104453.0,134572.0,6935.0
1679064215924881,104318.0,134717.0,6858.0
1679064215933881,104220.0,134831.0,6840.0
1679064215945881,104135.0,134965.0,6818.0
1679064215954881,104102.0,135000.0,6788.0
1679064215964881,104031.0,135141.0,6770.0
1679064215974881,104015.0,135196.0,6772.0
1679064215984881,103996.0,135211.0,6751.0
1679064215994881,104016.0,135187.0,6759.0
1679064216003881,103991.0,135125.0,6767.0
1679064216014881,104019.0,135097.0,6773.0
1679064216024881,104017.0,135052.0,6794.0
1679064216034881,104062.0,134995.0,6791.0
1679064216045881,104088.0,134941.0,6810.0
1679064216054881,104107.0,134878.0,6844.0
1679064216064881,104075.0,134806.0,6844.0
1679064216074881,104181.0,134762.0,6854.0
1679064216084881,104192.0,134702.0,6868.0
1679064216094881,104230.0,134663.0,6878.0
1679064216104881,104246.0,134590.0,6884.0
1679064216114881,104276.0,134561.0,6906.0
1679064216124881,104301.0,134519.0,6903.0
1679064216133881,104344.0,134496.0,6899.0
1679064216144881,104397.0,134450.0,6910.0
1679064216154881,104420.0,134429.0,6918.0
1679064216164881,104421.0,134407.0,6943.0
1679064216173881,104443.0,134426.0,6950.0
1679064216184881,104453.0,134407.0,6956.0
1679064216194881,104460.0,134381.0,6953.0
1679064216204881,104442.0,134417.0,6940.0
1679064216213881,104411.0,134451.0,6933.0
1679064216224881,104385.0,134462.0,6927.0
1679064216234881,104371.0,134461.0,6917.0
1679064216244881,104355.0,134507.0,6917.0
1679064216253881,104342.0,134492.0,6914.0
1679064216264881,104342.0,134542.0,6910.0
1679064216274881,104344.0,134540.0,6924.0
1679064216284881,104343.0,134482.0,6905.0
1679064216294881,104352.0,134541.0,6916.0
1679064216303881,104355.0,134530.0,6923.0
1679064216314881,104357.0,134554.0,6924.0
1679064216324881,104321.0,134530.0,6923.0
1679064216335881,104340.0,134536.0,6938.0
1679064216343881,104382.0,134455.0,6929.0
1679064216354880,104410.0,134451.0,6942.0
1679064216364880,104426.0,134492.0,6942.0
1679064216375880,104447.0,134421.0,6953.0
1679064216383880,104465.0,134402.0,6958.0
1679064216394880,104468.0,134413.0,6961.0
1679064216404880,104468.0,134429.0,6955.0
1679064216414880,104478.0,134436.0,6961.0
1679064216423880,104491.0,134435.0,6964.0
1679064216434880,104509.0,134448.0,6976.0
1679064216444880,104530.0,134445.0,6968.0
1679064216455881,104548.0,134456.0,6976.0
1679064216463881,104563.0,134391.0,6985.0
1679064216473881,104586.0,134403.0,6969.0
1679064216484881,104595.0,134407.0,6966.0
1679064216494881,104591.0,134441.0,6978.0
1679064216503881,104590.0,134456.0,6989.0
1679064216513881,104592.0,134431.0,6982.0
1679064216524881,104577.0,134401.0,6987.0
1679064216534881,104585.0,134393.0,6982.0
1679064216544880,104597.0,134410.0,6985.0
1679064216553881,104606.0,134415.0,6996.0
1679064216564880,104591.0,134417.0,6988.0
1679064216574880,104605.0,134407.0,6989.0
1679064216585880,104615.0,134399.0,7002.0
1679064216593880,104598.0,134427.0,6998.0
1679064216604880,104614.0,134402.0,6992.0
1679064216614880,104622.0,134422.0,6993.0
1679064216624880,104632.0,134403.0,6995.0
1679064216633881,104632.0,134412.0,6992.0
1679064216643881,104632.0,134394.0,7017.0
1679064216654881,104645.0,134419.0,6975.0
1679064216664881,104656.0,134412.0,7006.0
1679064216673881,104654.0,134399.0,6989.0
1679064216683881,104643.0,134422.0,6985.0
1679064216694881,104635.0,134420.0,6982.0
1679064216704881,104617.0,134462.0,6990.0
1679064216713881,104609.0,134466.0,6985.0
1679064216723881,104609.0,134475.0,6980.0
1679064216734881,104608.0,134459.0,6988.0
1679064216744881,104590.0,134428.0,6977.0
1679064216753881,104611.0,134434.0,6977.0
1679064216763881,104561.0,134454.0,6991.0
1679064216774881,104617.0,134466.0,6996.0
1679064216784881,104607.0,134428.0,7004.0
1679064216794880,104620.0,134460.0,6994.0
1679064216803881,104627.0,134437.0,7001.0
1679064216814881,104633.0,134426.0,6998.0
1679064216824881,104620.0,134391.0,6992.0
1679064216834881,104613.0,134455.0,6987.0
1679064216843881,104556.0,134508.0,6962.0
1679064216854881,104469.0,134585.0,6918.0
1679064216864881,104370.0,134678.0,6908.0
1679064216874881,104273.0,134832.0,6879.0
1679064216884881,104166.0,134974.0,6848.0
1679064216893881,104104.0,135094.0,6804.0
1679064216904881,104056.0,135171.0,6799.0
1679064216914881,104029.0,135256.0,6786.0
1679064216924881,104040.0,135339.0,6785.0
1679064216933881,104045.0,135336.0,6778.0
1679064216943881,104038.0,135334.0,6747.0
1679064216954881,104040.0,135271.0,6748.0
1679064216963881,104031.0,135207.0,6782.0
1679064216973881,104050.0,135121.0,6762.0
1679064216983881,104072.0,135049.0,6780.0
1679064216994881,104093.0,134991.0,6776.0
1679064217003881,104107.0,134923.0,6789.0
1679064217014881,104129.0,134883.0,6832.0
1679064217023881,104140.0,134828.0,6849.0
1679064217034881,104179.0,134753.0,6866.0
1679064217044881,104218.0,134709.0,6881.0
1679064217054881,104236.0,134665.0,6894.0
1679064217063881,104267.0,134686.0,6886.0
1679064217074881,104297.0,134540.0,6917.0
1679064217084881,104343.0,134500.0,6922.0
1679064217094881,104403.0,134458.0,6944.0
1679064217103881,104420.0,134423.0,6946.0
1679064217114881,104461.0,134393.0,6965.0
1679064217124881,104497.0,134426.0,6975.0
1679064217133881,104492.0,134428.0,6978.0
1679064217143881,104496.0,134411.0,6958.0
1679064217154881,104473.0,134419.0,6967.0
1679064217164881,104460.0,134444.0,6971.0
1679064217173881,104483.0,134386.0,6970.0
1679064217184881,104472.0,134380.0,6972.0
1679064217193881,104487.0,134385.0,6984.0
1679064217204881,104516.0,134387.0,6990.0
1679064217213881,104547.0,134345.0,7011.0
1679064217224881,104598.0,134345.0,7040.0
1679064217234881,104654.0,134317.0,7044.0
1679064217243881,104700.0,134321.0,7027.0
1679064217254881,104808.0,134320.0,7052.0
1679064217264881,104890.0,134307.0,7096.0
1679064217273881,105043.0,134329.0,7131.0
1679064217283881,105158.0,134350.0,7146.0
1679064217294880,105271.0,134365.0,7184.0
1679064217303881,105312.0,134398.0,7199.0
1679064217314880,105411.0,134439.0,7218.0
1679064217323881,105476.0,134446.0,7232.0
1679064217334880,105539.0,134460.0,7240.0
1679064217343881,105573.0,134454.0,7255.0
1679064217354881,105645.0,134486.0,7262.0
1679064217363881,105710.0,134504.0,7276.0
1679064217374881,105810.0,134531.0,7278.0
1679064217383881,105870.0,134539.0,7301.0
1679064217394881,105958.0,134559.0,7310.0
1679064217403881,106063.0,134590.0,7336.0
1679064217413881,106143.0,134625.0,7351.0
1679064217423881,106217.0,134625.0,7339.0
1679064217433881,106255.0,134654.0,7372.0
1679064217444881,106276.0,134645.0,7356.0
1679064217453881,106281.0,134667.0,7345.0
1679064217463881,106313.0,134696.0,7366.0
1679064217473881,106391.0,134706.0,7401.0
1679064217484881,106473.0,134735.0,7413.0
1679064217493881,106567.0,134748.0,7433.0
1679064217503881,106594.0,134751.0,7439.0
1679064217513881,106684.0,134792.0,7414.0
1679064217523881,106715.0,134791.0,7447.0
1679064217534881,106773.0,134803.0,7452.0
1679064217544881,106858.0,134847.0,7492.0
1679064217553881,106947.0,134835.0,7515.0
1679064217563881,107050.0,134871.0,7528.0
1679064217574881,107140.0,134966.0,7540.0
1679064217584881,107239.0,134944.0,7554.0
1679064217593881,107332.0,135019.0,7563.0
1679064217603881,107407.0,135072.0,7592.0
1679064217613881,107463.0,135092.0,7608.0
1679064217624881,107540.0,135129.0,7623.0
1679064217633881,107615.0,135137.0,7619.0
1679064217643881,107582.0,135069.0,7623.0
1679064217653881,107494.0,135073.0,7604.0
1679064217664881,107382.0,135031.0,7576.0
1679064217673881,107175.0,134987.0,7557.0
1679064217683881,106959.0,134941.0,7494.0
1679064217693881,106640.0,134823.0,7443.0
1679064217704881,106298.0,134690.0,7369.0
1679064217713881,105927.0,134594.0,7296.0
1679064217724881,105576.0,134526.0,7237.0
1679064217733881,105290.0,134494.0,7182.0
1679064217743881,105063.0,134442.0,7157.0
1679064217753881,104946.0,134443.0,7086.0
1679064217763881,104789.0,134418.0,7067.0
1679064217774881,104598.0,134412.0,7057.0
1679064217783881,104393.0,134343.0,7012.0
1679064217794881,104164.0,134337.0,6972.0
1679064217803881,103906.0,134286.0,6919.0
1679064217814881,103653.0,134283.0,6874.0
1679064217823881,103456.0,134310.0,6821.0
1679064217834881,103217.0,134380.0,6787.0
1679064217843881,102934.0,134514.0,6687.0
1679064217854881,102650.0,134983.0,6641.0
1679064217863881,102763.0,135824.0,6618.0
1679064217874881,102929.0,136920.0,6603.0
1679064217883881,103413.0,137989.0,6614.0
1679064217894881,103964.0,138997.0,6644.0
1679064217903881,104405.0,139693.0,6681.0
1679064217913881,104618.0,139996.0,6694.0
1679064217923881,104664.0,140111.0,6688.0
1679064217933881,104723.0,140183.0,6730.0
1679064217944881,104766.0,140179.0,6758.0
1679064217953881,104778.0,140156.0,6751.0
1679064217963881,104815.0,140118.0,6771.0
1679064217973881,104803.0,140147.0,6767.0
1679064217983881,104806.0,140147.0,6781.0
1679064217993881,104816.0,140151.0,6774.0
1679064218003881,104800.0,140126.0,6783.0
1679064218013881,104727.0,140036.0,6793.0
1679064218024881,104680.0,139932.0,6804.0
1679064218033881,104676.0,139900.0,6801.0
1679064218043881,104658.0,139852.0,6808.0
1679064218053881,104668.0,139814.0,6790.0
1679064218064881,104666.0,139820.0,6787.0
1679064218073881,104680.0,139787.0,6808.0
1679064218083881,104651.0,139773.0,6815.0
1679064218093881,104662.0,139775.0,6773.0
1679064218103881,104648.0,139754.0,6792.0
1679064218114881,104657.0,139776.0,6816.0
1679064218123881,104676.0,139739.0,6827.0
1679064218133881,104670.0,139742.0,6820.0
1679064218143881,104682.0,139706.0,6819.0
1679064218154881,104676.0,139699.0,6824.0
1679064218163881,104667.0,139698.0,6833.0
1679064218173881,104660.0,139693.0,6799.0
1679064218183881,104666.0,139599.0,6827.0
1679064218193881,104653.0,139589.0,6835.0
1679064218203881,104670.0,139644.0,6830.0
1679064218212881,104661.0,139618.0,6837.0
1679064218223881,104679.0,139608.0,6824.0
1679064218233881,104680.0,139616.0,6836.0
1679064218243881,104684.0,139614.0,6832.0
1679064218253881,104677.0,139610.0,6839.0
1679064218264881,104697.0,139597.0,6816.0
1679064218273881,104637.0,139604.0,6845.0
1679064218283881,104715.0,139624.0,6825.0
1679064218293881,104717.0,139610.0,6831.0
1679064218303881,104728.0,139596.0,6829.0
1679064218313881,104747.0,139608.0,6842.0
1679064218324881,104772.0,139591.0,6857.0
1679064218333881,104808.0,139611.0,6854.0
1679064218342881,104820.0,139610.0,6868.0
1679064218353881,104842.0,139630.0,6831.0
1679064218365881,104847.0,139644.0,6849.0
1679064218374881,104855.0,139647.0,6850.0
1679064218382881,104869.0,139647.0,6836.0
1679064218393881,104871.0,139657.0,6826.0
1679064218403881,104876.0,139665.0,6842.0
1679064218413881,104884.0,139692.0,6834.0
1679064218422881,104883.0,139682.0,6840.0
1679064218433881,104897.0,139684.0,6829.0
1679064218443881,104889.0,139702.0,6852.0
1679064218454881,104855.0,139716.0,6862.0
1679064218464881,104841.0,139733.0,6879.0
1679064218473881,104864.0,139765.0,6886.0
1679064218483881,104865.0,139745.0,6847.0
1679064218494881,104840.0,139736.0,6831.0
1679064218503881,104687.0,139564.0,6858.0
1679064218513881,104595.0,139421.0,6852.0
1679064218523881,104464.0,139248.0,6848.0
1679064218534881,104364.0,139114.0,6839.0
1679064218543881,104194.0,138955.0,6840.0
1679064218552881,104135.0,138911.0,6835.0
1679064218565881,104102.0,138937.0,6818.0
1679064218574881,104101.0,138981.0,6815.0
1679064218584881,104044.0,138946.0,6810.0
1679064218592881,103837.0,138665.0,6777.0
1679064218603881,103683.0,138467.0,6753.0
1679064218613881,103701.0,138528.0,6772.0
1679064218624881,103746.0,138672.0,6801.0
1679064218632881,103845.0,138797.0,6792.0
1679064218643880,103872.0,138862.0,6798.0
1679064218653880,103885.0,138861.0,6809.0
1679064218666880,103897.0,138905.0,6811.0
1679064218673880,103908.0,138890.0,6815.0
1679064218682881,103925.0,138842.0,6810.0
1679064218693880,103895.0,138809.0,6808.0
1679064218703880,103881.0,138805.0,6829.0
1679064218713880,103897.0,138808.0,6827.0
1679064218722880,103927.0,138842.0,6829.0
1679064218733880,103953.0,138875.0,6833.0
1679064218743880,103973.0,138892.0,6842.0
1679064218753880,104021.0,138923.0,6846.0
1679064218762880,103997.0,138885.0,6838.0
1679064218773880,103995.0,138855.0,6840.0
1679064218783880,104013.0,138761.0,6820.0
1679064218794881,103994.0,138697.0,6804.0
1679064218802881,103933.0,138668.0,6839.0
1679064218813881,103973.0,138657.0,6851.0
1679064218823881,103979.0,138646.0,6856.0
1679064218833881,103960.0,138638.0,6803.0
1679064218843881,103963.0,138710.0,6795.0
1679064218853881,103911.0,138615.0,6800.0
1679064218863880,103798.0,138516.0,6805.0
1679064218873880,103682.0,138287.0,6785.0
1679064218883880,103495.0,138083.0,6766.0
1679064218893880,103418.0,137994.0,6758.0
1679064218903880,103435.0,138042.0,6751.0
1679064218913880,103450.0,138089.0,6749.0
1679064218923880,103456.0,138119.0,6750.0
1679064218933880,103492.0,138217.0,6752.0
1679064218943880,103560.0,138338.0,6760.0
1679064218953880,103622.0,138424.0,6766.0
1679064218963880,103647.0,138475.0,6775.0
1679064218973881,103659.0,138501.0,6761.0
1679064218983881,103668.0,138531.0,6781.0
1679064218993881,103714.0,138489.0,6780.0
1679064219003881,103729.0,138538.0,6790.0
1679064219013881,103732.0,138586.0,6734.0
1679064219022881,103735.0,138595.0,6752.0
1679064219033881,103753.0,138623.0,6743.0
1679064219043881,103697.0,138622.0,6784.0
1679064219053881,103709.0,138653.0,6781.0
1679064219063881,103702.0,138689.0,6786.0
1679064219073881,103792.0,138809.0,6798.0
1679064219083881,103915.0,139020.0,6813.0
1679064219093881,104071.0,139203.0,6824.0
1679064219103881,104158.0,139248.0,6832.0
1679064219113881,104179.0,139246.0,6836.0
1679064219123881,104162.0,139201.0,6842.0
1679064219133881,104148.0,139165.0,6846.0
1679064219143881,104116.0,139086.0,6841.0
1679064219153881,104096.0,139066.0,6847.0
1679064219163881,104087.0,139015.0,6836.0
1679064219173881,104082.0,139014.0,6831.0
1679064219183881,104022.0,138841.0,6824.0
1679064219193881,103873.0,138656.0,6810.0
1679064219203881,103665.0,138383.0,6786.0
1679064219213881,103431.0,138063.0,6769.0
1679064219223881,103202.0,137730.0,6747.0
1679064219233881,102999.0,137499.0,6729.0
1679064219243881,102972.0,137483.0,6727.0
1679064219253881,103005.0,137596.0,6724.0
1679064219263881,102987.0,137568.0,6725.0
1679064219273881,103017.0,137616.0,6729.0
1679064219283881,103154.0,137791.0,6735.0
1679064219294880,103325.0,138035.0,6763.0
1679064219302880,103425.0,138137.0,6769.0
1679064219313880,103481.0,138247.0,6778.0
1679064219323880,103505.0,138277.0,6780.0
1679064219334881,103523.0,138303.0,6786.0
1679064219343881,103535.0,138357.0,6792.0
1679064219352881,103587.0,138462.0,6774.0
1679064219363881,103644.0,138543.0,6770.0
1679064219373881,103728.0,138646.0,6788.0
1679064219382881,103796.0,138728.0,6802.0
1679064219393881,103831.0,138779.0,6822.0
1679064219403881,103784.0,138766.0,6821.0
1679064219413881,103943.0,138825.0,6838.0
1679064219423881,104008.0,138871.0,6857.0
1679064219433881,104074.0,138884.0,6855.0
1679064219443881,104112.0,138924.0,6873.0
1679064219453881,104168.0,138933.0,6866.0
1679064219463881,104190.0,138953.0,6881.0
1679064219472881,104222.0,139014.0,6890.0
1679064219483881,104272.0,139086.0,6898.0
1679064219493881,104287.0,139100.0,6894.0
1679064219503881,104295.0,139124.0,6900.0
1679064219513881,104281.0,139119.0,6901.0
1679064219522881,104258.0,139081.0,6904.0
1679064219533881,104240.0,139059.0,6841.0
1679064219543881,104130.0,138928.0,6846.0
1679064219553881,103942.0,138787.0,6874.0
1679064219562881,103918.0,138679.0,6884.0
1679064219573881,103915.0,138689.0,6888.0
1679064219583881,103953.0,138660.0,6891.0
1679064219593881,103995.0,138718.0,6894.0
1679064219602881,104070.0,138789.0,6896.0
1679064219613881,104104.0,138830.0,6886.0
1679064219623881,104196.0,138881.0,6884.0
1679064219633881,104238.0,138947.0,6886.0
1679064219643881,104274.0,139012.0,6890.0
1679064219653881,104311.0,139106.0,6895.0
1679064219663881,104363.0,139224.0,6896.0
1679064219673881,104382.0,139276.0,6902.0
1679064219682881,104410.0,139252.0,6914.0
1679064219693881,104450.0,139285.0,6924.0
1679064219703881,104506.0,139300.0,6932.0
1679064219712881,104513.0,139285.0,6927.0
1679064219723881,104546.0,139282.0,6937.0
1679064219733881,104558.0,139316.0,6956.0
1679064219743881,104605.0,139288.0,6945.0
1679064219753881,104605.0,139294.0,6942.0
1679064219763881,104581.0,139248.0,6948.0
1679064219773881,104518.0,139176.0,6939.0
1679064219783881,104427.0,139056.0,6935.0
1679064219793881,104283.0,138845.0,6919.0
1679064219803881,104090.0,138657.0,6897.0
1679064219813881,103911.0,138467.0,6885.0
1679064219822881,103847.0,138414.0,6848.0
1679064219833881,103841.0,138463.0,6826.0
1679064219842881,103851.0,138492.0,6841.0
1679064219853881,103825.0,138469.0,6803.0
1679064219862881,103815.0,138467.0,6815.0
1679064219873881,103901.0,138677.0,6825.0
1679064219882881,104059.0,138991.0,6888.0
1679064219893881,104192.0,139222.0,6880.0
1679064219903881,104348.0,139423.0,6905.0
1679064219913881,104574.0,139573.0,6935.0
1679064219922881,104713.0,139651.0,6961.0
1679064219932881,104713.0,139557.0,6964.0
1679064219943881,104670.0,139429.0,6939.0
1679064219952881,104660.0,139311.0,6944.0
1679064219962881,104659.0,139269.0,6940.0
1679064219973881,104683.0,139282.0,6943.0
1679064219983881,104711.0,139374.0,6976.0
1679064219992881,104743.0,139338.0,6987.0
1679064220003881,104782.0,139360.0,6957.0
1679064220012881,104792.0,139420.0,6971.0
1679064220023881,104766.0,139480.0,6969.0
1679064220032881,104712.0,139504.0,6979.0
1679064220043881,104659.0,139487.0,6967.0
1679064220052881,104583.0,139415.0,6966.0
1679064220063881,104498.0,139330.0,6957.0
1679064220074881,104372.0,139143.0,6924.0
1679064220083881,104159.0,138883.0,6924.0
1679064220092881,103902.0,138632.0,6886.0
1679064220103881,103863.0,138585.0,6879.0
1679064220113881,103918.0,138698.0,6887.0
1679064220123881,104016.0,138783.0,6852.0
1679064220132881,104073.0,138913.0,6863.0
1679064220142881,104133.0,139044.0,6879.0
1679064220153881,104221.0,139140.0,6902.0
1679064220163881,104240.0,139234.0,6921.0
1679064220172881,104310.0,139299.0,6922.0
1679064220182881,104354.0,139349.0,6937.0
1679064220193881,104501.0,139420.0,6901.0
1679064220203881,104589.0,139490.0,6928.0
1679064220212881,104682.0,139521.0,6969.0
1679064220222881,104711.0,139562.0,6984.0
1679064220233881,104716.0,139529.0,6989.0
1679064220243881,104665.0,139493.0,6993.0
1679064220253881,104706.0,139461.0,6983.0
1679064220262881,104701.0,139384.0,6997.0
1679064220272881,104714.0,139375.0,7001.0
1679064220283881,104714.0,139400.0,7001.0
1679064220293881,104695.0,139304.0,7004.0
1679064220302881,104639.0,139212.0,7007.0
1679064220312881,104471.0,139096.0,6989.0
1679064220323881,104341.0,138958.0,6971.0
1679064220333881,104169.0,138838.0,6956.0
1679064220342881,104105.0,138779.0,6946.0
1679064220352881,103949.0,138592.0,6922.0
1679064220363881,103742.0,138185.0,6890.0
1679064220373881,103391.0,137591.0,6856.0
1679064220382881,103090.0,137189.0,6837.0
1679064220392881,103130.0,137328.0,6850.0
1679064220403881,103358.0,137731.0,6854.0
1679064220413881,103555.0,138073.0,6873.0
1679064220422881,103755.0,138400.0,6894.0
1679064220432881,104011.0,138706.0,6924.0
1679064220442881,104201.0,138958.0,6945.0
1679064220453881,104385.0,139155.0,6937.0
1679064220462881,104521.0,139280.0,6950.0
1679064220472881,104626.0,139351.0,6957.0
1679064220482881,104686.0,139376.0,6996.0
1679064220493881,104727.0,139337.0,6969.0
1679064220503881,104726.0,139365.0,6975.0
1679064220512881,104739.0,139354.0,6973.0
1679064220522881,104758.0,139393.0,6991.0
1679064220533881,104792.0,139435.0,6980.0
1679064220542881,104809.0,139461.0,6992.0
1679064220552881,104815.0,139483.0,6994.0
1679064220562881,104778.0,139426.0,6988.0
1679064220573881,104673.0,139334.0,6977.0
1679064220583881,104523.0,139197.0,6964.0
1679064220592881,104323.0,138966.0,6966.0
1679064220602881,104075.0,138609.0,6924.0
1679064220613881,103727.0,138054.0,6882.0
1679064220623881,103339.0,137484.0,6847.0
1679064220632881,103049.0,136912.0,6835.0
1679064220642881,102803.0,136587.0,6834.0
1679064220653881,102847.0,136716.0,6821.0
1679064220663881,103068.0,137073.0,6835.0
1679064220672881,103277.0,137393.0,6850.0
1679064220682881,103450.0,137682.0,6863.0
1679064220693881,103668.0,138085.0,6884.0
1679064220703881,103922.0,138428.0,6908.0
1679064220712881,104097.0,138710.0,6930.0
1679064220722881,104246.0,138901.0,6941.0
1679064220733881,104362.0,139102.0,6959.0
1679064220742881,104512.0,139196.0,6972.0
1679064220753881,104609.0,139352.0,6981.0
1679064220762881,104705.0,139392.0,6974.0
1679064220773881,104740.0,139463.0,6985.0
1679064220783881,104765.0,139467.0,6977.0
1679064220792881,104770.0,139510.0,6988.0
1679064220802881,104761.0,139467.0,6983.0
1679064220812881,104726.0,139409.0,6956.0
1679064220823881,104640.0,139353.0,6980.0
1679064220833881,104579.0,139262.0,6976.0
1679064220842881,104540.0,139146.0,6941.0
1679064220852881,104430.0,139029.0,6932.0
1679064220862881,104376.0,138957.0,6938.0
1679064220873881,104354.0,138900.0,6942.0
1679064220882881,104298.0,138781.0,6934.0
1679064220892881,104160.0,138515.0,6902.0
1679064220902881,103937.0,138199.0,6910.0
1679064220913881,103757.0,137869.0,6884.0
1679064220922881,103547.0,137522.0,6863.0
1679064220933881,103423.0,137233.0,6853.0
1679064220942881,103273.0,136998.0,6836.0
1679064220953881,103130.0,136717.0,6826.0
1679064220962881,102945.0,136369.0,6815.0
1679064220972881,102741.0,136074.0,6805.0
1679064220982881,102564.0,135767.0,6786.0
1679064220993881,102442.0,135625.0,6798.0
1679064221003881,102399.0,135544.0,6793.0
1679064221012881,102383.0,135567.0,6797.0
1679064221022881,102459.0,135738.0,6782.0
1679064221032881,102633.0,136020.0,6782.0
1679064221043881,102815.0,136338.0,6771.0
1679064221052881,103009.0,136700.0,6817.0
1679064221062881,103198.0,137158.0,6846.0
1679064221072881,103399.0,137553.0,6852.0
1679064221083881,103590.0,137847.0,6873.0
1679064221092881,103818.0,138080.0,6876.0
1679064221102881,103848.0,138313.0,6902.0
1679064221112881,103931.0,138454.0,6905.0
1679064221123880,104007.0,138533.0,6927.0
1679064221132881,104046.0,138588.0,6930.0
1679064221142881,104071.0,138620.0,6927.0
1679064221152881,104081.0,138567.0,6880.0
1679064221162881,104048.0,138527.0,6896.0
1679064221172881,104048.0,138479.0,6875.0
1679064221183881,104004.0,138457.0,6876.0
1679064221193881,104004.0,138448.0,6901.0
1679064221202881,103981.0,138325.0,6890.0
1679064221212881,103922.0,138272.0,6892.0
1679064221222881,103866.0,138132.0,6886.0
1679064221233881,103798.0,138043.0,6889.0
1679064221242881,103723.0,137939.0,6881.0
1679064221253881,103660.0,137825.0,6877.0
1679064221262881,103550.0,137659.0,6855.0
1679064221272881,103454.0,137569.0,6869.0
1679064221283881,103425.0,137506.0,6853.0
1679064221293881,103401.0,137476.0,6840.0
1679064221302881,103404.0,137467.0,6854.0
1679064221312881,103421.0,137517.0,6853.0
1679064221323881,103478.0,137625.0,6832.0
1679064221332881,103511.0,137713.0,6866.0
1679064221342881,103556.0,137788.0,6860.0
1679064221352881,103591.0,137856.0,6861.0
1679064221363881,103647.0,137885.0,6860.0
1679064221373881,103681.0,137953.0,6854.0
1679064221381881,103731.0,137992.0,6846.0
1679064221392881,103780.0,138027.0,6834.0
1679064221402881,103786.0,138063.0,6886.0
1679064221413880,103812.0,138107.0,6851.0
1679064221421880,103828.0,138157.0,6865.0
1679064221432880,103860.0,138183.0,6860.0
1679064221442880,103858.0,138194.0,6865.0
1679064221453880,103869.0,138239.0,6855.0
1679064221461880,103858.0,138253.0,6867.0
1679064221472880,103853.0,138233.0,6873.0
1679064221482880,103835.0,138182.0,6884.0
1679064221493881,103850.0,138205.0,6878.0
1679064221502881,103851.0,138186.0,6857.0
1679064221512881,103845.0,138219.0,6888.0
1679064221522881,103829.0,138217.0,6883.0
1679064221533881,103829.0,138180.0,6888.0
1679064221542881,103814.0,138098.0,6891.0
1679064221551881,103804.0,138088.0,6908.0
1679064221562881,103817.0,138110.0,6867.0
1679064221572881,103805.0,138121.0,6876.0
1679064221583881,103800.0,138115.0,6851.0
1679064221591881,103801.0,138112.0,6881.0
1679064221602881,103808.0,138115.0,6881.0
1679064221612881,103803.0,138104.0,6890.0
1679064221623880,103801.0,138097.0,6894.0
1679064221631880,103738.0,138085.0,6891.0
1679064221642880,103755.0,138037.0,6887.0
1679064221652880,103720.0,138028.0,6887.0
1679064221663880,103728.0,138022.0,6880.0
1679064221671881,103735.0,138030.0,6888.0
1679064221682881,103725.0,138021.0,6900.0
1679064221692881,103727.0,137947.0,6883.0
1679064221703881,103714.0,137932.0,6881.0
1679064221711881,103692.0,137943.0,6880.0
1679064221722880,103706.0,137930.0,6884.0
1679064221732880,103697.0,137900.0,6875.0
1679064221743880,103688.0,137906.0,6878.0
1679064221752880,103699.0,137928.0,6881.0
1679064221762880,103714.0,137948.0,6886.0
1679064221772880,103719.0,137887.0,6892.0
1679064221783880,103709.0,137924.0,6893.0
1679064221792880,103730.0,137965.0,6894.0
1679064221802880,103740.0,137953.0,6900.0
1679064221812880,103746.0,137962.0,6890.0
1679064221822880,103733.0,137965.0,6897.0
1679064221832880,103762.0,138071.0,6861.0
1679064221841880,103819.0,138108.0,6868.0
1679064221852881,103877.0,138185.0,6862.0
1679064221862881,103873.0,138282.0,6914.0
1679064221873881,103932.0,138306.0,6920.0
1679064221882881,103971.0,138339.0,6926.0
1679064221892881,103995.0,138415.0,6909.0
1679064221902881,103993.0,138425.0,6940.0
1679064221912881,103982.0,138414.0,6948.0
1679064221922881,103994.0,138452.0,6927.0
1679064221931881,104001.0,138405.0,6944.0
1679064221942881,103986.0,138446.0,6943.0
1679064221952881,103989.0,138451.0,6950.0
1679064221962881,104038.0,138463.0,6939.0
1679064221972881,104040.0,138460.0,6949.0
1679064221982881,104037.0,138460.0,6949.0
1679064221992881,104045.0,138407.0,6949.0
1679064222003881,103988.0,138406.0,6945.0
1679064222011880,103988.0,138371.0,6946.0
1679064222022880,104011.0,138348.0,6955.0
1679064222032881,104001.0,138314.0,6945.0
1679064222043881,103996.0,138282.0,6950.0
1679064222052881,103983.0,138280.0,6931.0
1679064222062881,103981.0,138252.0,6935.0
1679064222072881,103972.0,138233.0,6866.0
1679064222082881,103909.0,138203.0,6931.0
1679064222092881,103896.0,138189.0,6927.0
1679064222102881,103928.0,138189.0,6938.0
1679064222112881,103888.0,138179.0,6917.0
1679064222122881,103874.0,138137.0,6919.0
1679064222132881,103884.0,138090.0,6916.0
1679064222142881,103879.0,138101.0,6909.0
1679064222152881,103881.0,138111.0,6914.0
1679064222162881,103882.0,138085.0,6922.0
1679064222172881,103892.0,138084.0,6907.0
1679064222182881,103904.0,138076.0,6924.0
1679064222192880,103930.0,138119.0,6925.0
1679064222202880,103890.0,138225.0,6926.0
1679064222212881,103958.0,138245.0,6924.0
1679064222222881,103975.0,138190.0,6923.0
1679064222231881,103990.0,138244.0,6922.0
1679064222242881,103999.0,138248.0,6917.0
1679064222252881,104000.0,138260.0,6901.0
1679064222262881,103973.0,138271.0,6920.0
1679064222272881,103970.0,138281.0,6923.0
1679064222282881,104003.0,138289.0,6926.0
1679064222292881,104003.0,138272.0,6929.0
1679064222302881,104007.0,138283.0,6923.0
1679064222312881,104029.0,138311.0,6931.0
1679064222322881,104064.0,138314.0,6930.0
1679064222332881,104080.0,138315.0,6924.0
1679064222342881,104056.0,138209.0,6936.0
1679064222352881,104073.0,138273.0,6934.0
1679064222362881,104051.0,138248.0,6931.0
1679064222372881,104049.0,138217.0,6934.0
1679064222382881,104039.0,138194.0,6929.0
1679064222392881,104059.0,138227.0,6929.0
1679064222402881,104104.0,138318.0,6936.0
1679064222412881,104164.0,138399.0,6938.0
1679064222421881,104188.0,138395.0,6943.0
1679064222432881,104214.0,138414.0,6927.0
1679064222441881,104213.0,138413.0,6931.0
1679064222452881,104242.0,138460.0,6928.0
1679064222461881,104266.0,138536.0,6949.0
1679064222472881,104269.0,138505.0,6950.0
1679064222482881,104269.0,138504.0,6945.0
1679064222492881,104277.0,138538.0,6951.0
1679064222502881,104310.0,138510.0,6952.0
1679064222512881,104236.0,138506.0,6961.0
1679064222521881,104226.0,138504.0,6950.0
1679064222532881,104267.0,138510.0,6947.0
1679064222542881,104271.0,138522.0,6946.0
1679064222552881,104274.0,138520.0,6952.0
1679064222561881,104296.0,138523.0,6947.0
1679064222572881,104295.0,138549.0,6938.0
1679064222582881,104287.0,138465.0,6948.0
1679064222592881,104284.0,138503.0,6950.0
1679064222602881,104270.0,138506.0,6934.0
1679064222611881,104250.0,138433.0,6943.0
1679064222622881,104261.0,138421.0,6924.0
1679064222631881,104258.0,138456.0,6940.0
1679064222642881,104291.0,138535.0,6961.0
1679064222652881,104304.0,138585.0,6957.0
1679064222662881,104329.0,138623.0,6981.0
1679064222671881,104360.0,138583.0,6975.0
1679064222682881,104359.0,138612.0,6983.0
1679064222693881,104379.0,138571.0,6987.0
1679064222702881,104951.0,139339.0,7051.0
1679064222711881,105753.0,140071.0,7121.0
1679064222721881,106474.0,140666.0,7176.0
1679064222732881,106735.0,140901.0,7159.0
1679064222742881,106734.0,140829.0,7179.0
1679064222752881,106638.0,140709.0,7150.0
1679064222761881,106575.0,140674.0,7151.0
1679064222772881,106575.0,140761.0,7184.0
1679064222782881,106570.0,140802.0,7180.0
1679064222793881,106574.0,140803.0,7201.0
1679064222801880,106556.0,140718.0,7183.0
1679064222812880,106580.0,140796.0,7185.0
1679064222822880,106638.0,140752.0,7189.0
1679064222833880,106671.0,140889.0,7196.0
1679064222841880,106712.0,140919.0,7192.0
1679064222851880,106731.0,140972.0,7161.0
1679064222862880,106717.0,141042.0,7164.0
1679064222872880,106771.0,141111.0,7166.0
1679064222881880,106793.0,141178.0,7161.0
1679064222891880,106808.0,141251.0,7162.0
1679064222902880,106794.0,141301.0,7161.0
1679064222912880,106838.0,141384.0,7163.0
1679064222921880,106845.0,141488.0,7164.0
1679064222931881,106890.0,141590.0,7173.0
1679064222942881,106915.0,141650.0,7179.0
1679064222952881,106959.0,141712.0,7170.0
1679064222961881,106962.0,141731.0,7165.0
1679064222971881,106961.0,141764.0,7169.0
1679064222982881,106970.0,141807.0,7178.0
1679064222992881,107002.0,141847.0,7173.0
1679064223002881,107030.0,141920.0,7170.0
1679064223011881,107087.0,141937.0,7181.0
1679064223021881,107123.0,142015.0,7189.0
1679064223032881,107152.0,142054.0,7164.0
1679064223042881,107190.0,142146.0,7170.0
1679064223051881,107216.0,142175.0,7176.0
1679064223061881,107228.0,142207.0,7160.0
1679064223072881,107236.0,142241.0,7166.0
1679064223082881,107259.0,142288.0,7180.0
1679064223091881,107286.0,142313.0,7168.0
1679064223102881,107301.0,142354.0,7159.0
1679064223112881,107303.0,142386.0,7181.0
1679064223122881,107315.0,142433.0,7175.0
1679064223131881,107341.0,142442.0,7134.0
1679064223141881,107325.0,142443.0,7145.0
1679064223152881,107309.0,142440.0,7175.0
1679064223162881,107314.0,142448.0,7168.0
1679064223171881,107288.0,142412.0,7148.0
1679064223181881,107190.0,142304.0,7136.0
1679064223192881,107143.0,142141.0,7135.0
1679064223202881,107051.0,141966.0,7112.0
1679064223211881,106963.0,141882.0,7106.0
1679064223221881,106892.0,141734.0,7107.0
1679064223232881,106782.0,141567.0,7094.0
1679064223242881,106688.0,141408.0,7098.0
1679064223252881,106586.0,141218.0,7072.0
1679064223261881,106475.0,141034.0,7076.0
1679064223272881,106414.0,140907.0,7070.0
1679064223281881,106354.0,140803.0,7066.0
1679064223292881,106305.0,140692.0,7064.0
1679064223301881,106254.0,140562.0,7084.0
1679064223312881,106186.0,140472.0,7066.0
1679064223322881,106117.0,140264.0,7068.0
1679064223332881,106052.0,140164.0,7079.0
1679064223341881,105966.0,139931.0,7056.0
1679064223352881,105906.0,139782.0,7062.0
1679064223362881,105844.0,139652.0,7060.0
1679064223372881,105751.0,139533.0,7062.0
1679064223381881,105695.0,139424.0,7063.0
1679064223391881,105652.0,139381.0,7034.0
1679064223402881,105633.0,139334.0,7021.0
1679064223411881,105605.0,139280.0,7050.0
1679064223421881,105608.0,139341.0,7022.0
1679064223431881,105675.0,139479.0,7036.0
1679064223442881,105760.0,139683.0,7027.0
1679064223451881,105859.0,139897.0,7051.0
1679064223461881,105902.0,140155.0,7055.0
1679064223471881,105993.0,140332.0,7051.0
1679064223482881,106082.0,140494.0,7042.0
