time,ecg,hr,rr,marker
1679064528834598538,-0.1,61
1679064528842294578,-0.089
1679064528849990618,-0.058
1679064528857686658,-0.043000000000000003
1679064528865382698,-0.039
1679064528873078738,-0.022
1679064528880774778,-0.018000000000000002
1679064528888470818,-0.058
1679064528896166858,-0.106
1679064528903862898,-0.10400000000000001
1679064528911558938,-0.108
1679064528919254978,-0.183
1679064528926951018,-0.229
1679064528934647058,-0.177
1679064528942343098,-0.127
1679064528950039138,-0.127
1679064528957735178,-0.135
1679064528965431218,-0.158
1679064528973127258,-0.219
1679064528980823298,-0.25
1679064528988519338,-0.229
1679064528996215378,-0.202
1679064529003911418,-0.183
1679064529011607458,-0.17300000000000001
1679064529019303498,-0.179
1679064529026999538,-0.169
1679064529034695578,-0.112
1679064529042391618,0.062
1679064529050087658,0.444
1679064529057783698,0.899
1679064529065479738,0.96
1679064529073175778,0.24
1679064529080871818,-0.594
1679064529088567858,-0.523
1679064529096263898,-0.031
1679064529103959938,0.004
1679064529111655978,-0.114
1679064529119352018,-0.029
1679064529127048058,0.031
1679064529134744098,0.004
1679064529142440138,0.035
1679064529150136178,0.085
1679064529157832218,0.077
1679064529165528258,0.073
1679064529173224298,0.112
1679064529180920338,0.148,,1025
1679064529188616378,0.156
1679064529196312418,0.158
1679064529204008458,0.171
1679064529211704498,0.171
1679064529219400538,0.14400000000000002
1679064529227096578,0.127
1679064529234792618,0.154
1679064529242488658,0.179
1679064529250184698,0.17500000000000002
1679064529257880738,0.177
1679064529265576778,0.215
1679064529273272818,0.25
1679064529280968858,0.258
1679064529288664898,0.265
1679064529296360938,0.28300000000000003
1679064529304056978,0.302
1679064529311753018,0.313
1679064529319449058,0.325
1679064529327145098,0.34800000000000003
1679064529334841138,0.359
1679064529342537178,0.34
1679064529350233218,0.315
1679064529357929258,0.311
1679064529365625298,0.296
1679064529373321338,0.246
1679064529381017378,0.202
1679064529388713418,0.179
1679064529396409486,0.16
1679064529404105944,0.14400000000000002
1679064529411802402,0.148
1679064529419498860,0.148
1679064529427195318,0.081
1679064529434891776,-0.004
1679064529442588234,-0.008
1679064529450284692,0.031
1679064529457981150,0.033
1679064529465677608,0.01
1679064529473374066,-0.002
1679064529481070524,-0.004
1679064529488766982,-0.035
1679064529496463440,-0.079
1679064529504159898,-0.07
1679064529511856356,-0.039
1679064529519552814,-0.045
1679064529527249272,-0.073
1679064529534945730,-0.089
1679064529542642188,-0.098
1679064529550338646,-0.10200000000000001
1679064529558035104,-0.093
1679064529565731562,-0.085
1679064529573428020,-0.093
1679064529581124478,-0.106
1679064529588820936,-0.1
1679064529596517394,-0.075
1679064529604213852,-0.054
1679064529611910310,-0.052000000000000005
1679064529619606768,-0.06
1679064529627303226,-0.05
1679064529634999684,-0.029
1679064529642696142,-0.02
1679064529650392600,-0.004
1679064529658089058,0.02
1679064529665785516,0.012
1679064529673481974,-0.006
1679064529681178432,0.014
1679064529688874890,0.039
1679064529696571348,0.025
1679064529704267806,-0.01
1679064529711964264,-0.066
1679064529719660722,-0.127
1679064529727357180,-0.15
1679064529735053638,-0.146
1679064529742750096,-0.139
1679064529750446554,-0.137
1679064529758143012,-0.15
1679064529765839470,-0.158
1679064529773535928,-0.14100000000000001
1679064529781232386,-0.121
1679064529788928844,-0.114
1679064529796625302,-0.112
1679064529804321760,-0.11
1679064529812018218,-0.10200000000000001
1679064529819714676,-0.081
1679064529827411134,-0.05
1679064529835107592,-0.01
1679064529842804050,0.025
1679064529850500508,0.012
1679064529858196966,-0.035
1679064529865893424,-0.05
1679064529873589882,-0.025
1679064529881286340,-0.012
1679064529888982798,-0.022
1679064529896679256,-0.018000000000000002
1679064529904375714,-0.002
1679064529912072172,0.008
1679064529919768630,0.014
1679064529927465088,0.022
1679064529935161546,0.093
1679064529942858004,0.381
1679064529950554462,0.8200000000000001
1679064529958250952,0.93,61
1679064529965946992,0.265
1679064529973643032,-0.634
1679064529981339072,-0.713
1679064529989035112,-0.26
1679064529996731152,-0.158
1679064530004427192,-0.292
1679064530012123232,-0.271
1679064530019819272,-0.202
1679064530027515312,-0.217
1679064530035211352,-0.229
1679064530042907392,-0.194
1679064530050603432,-0.156
1679064530058299472,-0.146
1679064530065995512,-0.129
1679064530073691552,-0.098
1679064530081387592,-0.085
1679064530089083632,-0.083
1679064530096779672,-0.056
1679064530104475712,-0.01
1679064530112171752,0.029
1679064530119867792,0.045
1679064530127563832,0.048
1679064530135259872,0.068
1679064530142955912,0.106
1679064530150651952,0.129
1679064530158347992,0.15
1679064530166044032,0.179
1679064530173740072,0.196
1679064530181436112,0.20600000000000002,,1002
1679064530189132152,0.227
1679064530196828192,0.248
1679064530204524232,0.233
1679064530212220272,0.20400000000000001
1679064530219916312,0.198
1679064530227612352,0.21
1679064530235308392,0.215
1679064530243004432,0.20600000000000002
1679064530250700472,0.202
1679064530258396512,0.185
1679064530266092552,0.133
1679064530273788592,0.081
1679064530281484632,0.064
1679064530289180672,0.073
1679064530296876712,0.075
1679064530304572752,0.07
1679064530312268792,0.07
1679064530319964832,0.083
1679064530327660872,0.10200000000000001
1679064530335356912,0.127
1679064530343052952,0.162
1679064530350748992,0.183
1679064530358445032,0.162
1679064530366141072,0.146
1679064530373837112,0.171
1679064530381533152,0.198
1679064530389229192,0.2
1679064530396925232,0.21
1679064530404621272,0.221
1679064530412317312,0.20600000000000002
1679064530420013352,0.2
1679064530427709392,0.187
1679064530435405432,0.123
1679064530443101472,0.045
1679064530450797512,0.008
1679064530458493552,-0.004
1679064530466189592,0.0
1679064530473885632,0.01
1679064530481581672,0.018000000000000002
1679064530489277712,0.029
1679064530496973752,0.035
1679064530504669792,0.027
1679064530512365832,0.022
1679064530520061900,0.041,61
1679064530527758358,0.066
1679064530535454816,0.052000000000000005
1679064530543151274,-0.002
1679064530550847732,-0.02
1679064530558544190,0.004
1679064530566240648,-0.004
1679064530573937106,-0.062
1679064530581633564,-0.093
1679064530589330022,-0.079
1679064530597026480,-0.077
1679064530604722938,-0.089
1679064530612419396,-0.079
1679064530620115854,-0.048
1679064530627812312,-0.029
1679064530635508770,-0.027
1679064530643205228,-0.01
1679064530650901686,0.037
1679064530658598144,0.062
1679064530666294602,0.025
1679064530673991060,-0.008
1679064530681687518,0.002
1679064530689383976,-0.002
1679064530697080434,-0.058
1679064530704776892,-0.10200000000000001
1679064530712473350,-0.10400000000000001
1679064530720169808,-0.133
1679064530727866266,-0.187
1679064530735562724,-0.183
1679064530743259182,-0.07
1679064530750955640,0.221
1679064530758652098,0.674
1679064530766348556,0.962
1679064530774045014,0.528
1679064530781741472,-0.45
1679064530789437930,-0.803
1679064530797134388,-0.365
1679064530804830846,-0.10400000000000001
1679064530812527304,-0.183
1679064530820223762,-0.177
1679064530827920220,-0.106
1679064530835616678,-0.10400000000000001
1679064530843313136,-0.10200000000000001
1679064530851009594,-0.058
1679064530858706052,-0.027
1679064530866402510,-0.027
1679064530874098968,-0.025
1679064530881795426,0.002
1679064530889491884,0.033
1679064530897188342,0.05
1679064530904884800,0.056
1679064530912581258,0.062
1679064530920277716,0.085
1679064530927974174,0.11800000000000001
1679064530935670632,0.112
1679064530943367090,0.06
1679064530951063548,0.043000000000000003
1679064530958760006,0.064
1679064530966456464,0.07
1679064530974152922,0.091
1679064530981849380,0.133
1679064530989545838,0.156
1679064530997242296,0.162
1679064531004938754,0.17500000000000002
1679064531012635212,0.192
1679064531020331670,0.198
1679064531028028128,0.20400000000000001
1679064531035724586,0.223
1679064531043421044,0.233
1679064531051117502,0.202
1679064531058813960,0.16
1679064531066510418,0.146
1679064531074206876,0.127
1679064531081903368,0.085
1679064531089599408,0.05
1679064531097295448,0.037
1679064531104991488,0.029
1679064531112687528,0.027
1679064531120383568,0.039
1679064531128079608,0.066
1679064531135775648,0.083,,952
1679064531143471688,0.075
1679064531151167728,0.077
1679064531158863768,0.108
1679064531166559808,0.114
1679064531174255848,0.073
1679064531181951888,0.039
1679064531189647928,0.02
1679064531197343968,-0.012
1679064531205040008,-0.037
1679064531212736048,-0.012
1679064531220432088,0.031
1679064531228128128,0.031
1679064531235824168,0.002
1679064531243520208,0.002
1679064531251216248,0.039
1679064531258912288,0.07
1679064531266608328,0.106
1679064531274304368,0.131
1679064531282000408,0.121
1679064531289696448,0.098
1679064531297392488,0.091
1679064531305088528,0.106
1679064531312784568,0.125
1679064531320480608,0.125
1679064531328176648,0.112
1679064531335872688,0.11800000000000001
1679064531343568728,0.137
1679064531351264768,0.137
1679064531358960808,0.14100000000000001
1679064531366656848,0.164
1679064531374352888,0.166
1679064531382048928,0.15
1679064531389744968,0.16
1679064531397441008,0.189
1679064531405137048,0.202
1679064531412833088,0.196
1679064531420529128,0.185
1679064531428225168,0.177
1679064531435921208,0.146
1679064531443617248,0.083
1679064531451313288,0.022
1679064531459009328,0.004
1679064531466705368,-0.002
1679064531474401408,-0.01
1679064531482097448,0.008
1679064531489793488,0.02
1679064531497489528,0.002
1679064531505185568,-0.016
1679064531512881608,-0.043000000000000003
1679064531520577648,-0.077
1679064531528273688,-0.083
1679064531535969728,-0.073
1679064531543665768,-0.062
1679064531551361808,-0.05
1679064531559057848,-0.054
1679064531566753888,-0.06
1679064531574449928,-0.041
1679064531582145968,-0.016
1679064531589842008,0.077
1679064531597538048,0.381
1679064531605234088,0.851
1679064531612930128,1.137
1679064531620626168,0.705
1679064531628322208,-0.275
1679064531636018248,-0.607
1679064531643714316,-0.125,61
1679064531651410774,0.062
1679064531659107232,-0.116
1679064531666803690,-0.10400000000000001
1679064531674500148,-0.062
1679064531682196606,-0.156
1679064531689893064,-0.185
1679064531697589522,-0.152
1679064531705285980,-0.181
1679064531712982438,-0.23500000000000001
1679064531720678896,-0.24
1679064531728375354,-0.21
1679064531736071812,-0.20400000000000001
1679064531743768270,-0.219
1679064531751464728,-0.20400000000000001
1679064531759161186,-0.164
1679064531766857644,-0.14400000000000002
1679064531774554102,-0.135
1679064531782250560,-0.112
1679064531789947018,-0.085
1679064531797643476,-0.075
1679064531805339934,-0.06
1679064531813036392,-0.022
1679064531820732850,0.018000000000000002
1679064531828429308,0.037
1679064531836125766,0.041
1679064531843822224,0.07
1679064531851518682,0.127
1679064531859215140,0.166
1679064531866911598,0.192
1679064531874608056,0.215
1679064531882304514,0.215
1679064531890000972,0.198
1679064531897697430,0.183
1679064531905393888,0.17300000000000001
1679064531913090346,0.154
1679064531920786804,0.112
1679064531928483262,0.041
1679064531936179720,-0.008
1679064531943876178,-0.016
1679064531951572636,-0.062
1679064531959269094,-0.127
1679064531966965552,-0.125
1679064531974662010,-0.108
1679064531982358468,-0.125
1679064531990054926,-0.112
1679064531997751384,-0.068
1679064532005447842,-0.048
1679064532013144300,-0.052000000000000005
1679064532020840758,-0.052000000000000005
1679064532028537216,-0.027
1679064532036233674,-0.004
1679064532043930132,0.008
1679064532051626590,0.027
1679064532059323048,0.054
1679064532067019506,0.052000000000000005
1679064532074715964,0.041,,938
1679064532082412422,0.062
1679064532090108880,0.093
1679064532097805338,0.10200000000000001
1679064532105501796,0.098
1679064532113198254,0.10200000000000001
1679064532120894712,0.114
1679064532128591170,0.123
1679064532136287628,0.123
1679064532143984086,0.139
1679064532151680544,0.158
1679064532159377002,0.15
1679064532167073460,0.121
1679064532174769918,0.091
1679064532182466376,0.079
1679064532190162834,0.079
1679064532197859292,0.079
1679064532205555782,0.081
1679064532213252240,0.089
1679064532220948698,0.096
1679064532228645156,0.10400000000000001
1679064532236341614,0.127
1679064532244038072,0.133
1679064532251734530,0.077
1679064532259430988,0.02
1679064532267127446,0.035
1679064532274823904,0.062
1679064532282520362,0.054
1679064532290216820,0.054
1679064532297913278,0.066
1679064532305609736,0.07
1679064532313306194,0.073
1679064532321002652,0.089
1679064532328699110,0.114
1679064532336395568,0.123
1679064532344092026,0.112
1679064532351788484,0.114
1679064532359484942,0.135
1679064532367181400,0.15
1679064532374877858,0.152
1679064532382574316,0.162
1679064532390270774,0.171
1679064532397967232,0.166
1679064532405663690,0.169
1679064532413360148,0.166
1679064532421056606,0.131
1679064532428753064,0.081
1679064532436449522,0.06
1679064532444145980,0.07
1679064532451842438,0.06
1679064532459538896,-0.008
1679064532467235354,-0.091
1679064532474931812,-0.121
1679064532482628270,-0.125
1679064532490324728,-0.137
1679064532498021186,-0.135
1679064532505717644,-0.108
1679064532513414102,-0.08700000000000001
1679064532521110560,-0.08700000000000001
1679064532528807018,-0.1
1679064532536503476,-0.08700000000000001
1679064532544199934,0.027
1679064532551896392,0.342
1679064532559592850,0.809
1679064532567289308,1.106
1679064532574985766,0.6880000000000001
1679064532582682224,-0.308
1679064532590378682,-0.6930000000000001
1679064532598075140,-0.23500000000000001
1679064532605771598,-0.033
1679064532613468056,-0.231
1679064532621164514,-0.244
1679064532628860972,-0.152
1679064532636557430,-0.177
1679064532644253888,-0.192
1679064532651950346,-0.146
1679064532659646804,-0.15
1679064532667343262,-0.20400000000000001
1679064532675039720,-0.223
1679064532682736178,-0.187
1679064532690432636,-0.158
1679064532698129094,-0.158
1679064532705825552,-0.152
1679064532713522010,-0.133
1679064532721218468,-0.112
1679064532728914926,-0.091
1679064532736611384,-0.068
1679064532744307842,-0.037
1679064532752004300,-0.006
1679064532759700758,0.0
1679064532767397248,0.01,61
1679064532775093288,0.05
1679064532782789328,0.089
1679064532790485368,0.10200000000000001
1679064532798181408,0.114
1679064532805877448,0.135
1679064532813573488,0.14100000000000001
1679064532821269528,0.116
1679064532828965568,0.08700000000000001
1679064532836661608,0.096
1679064532844357648,0.112
1679064532852053688,0.085
1679064532859749728,0.052000000000000005
1679064532867445768,0.043000000000000003
1679064532875141808,0.022
1679064532882837848,-0.012
1679064532890533888,-0.037
1679064532898229928,-0.045
1679064532905925968,-0.062
1679064532913622008,-0.089
1679064532921318048,-0.091
1679064532929014088,-0.062
1679064532936710128,-0.043000000000000003
1679064532944406168,-0.056
1679064532952102208,-0.054
1679064532959798248,-0.045
1679064532967494288,-0.098,,894
1679064532975190328,-0.152
1679064532982886368,-0.127
1679064532990582408,-0.098
1679064532998278448,-0.10200000000000001
1679064533005974488,-0.089
1679064533013670528,-0.06
1679064533021366568,-0.037
1679064533029062608,-0.029
1679064533036758648,-0.035
1679064533044454688,-0.022
1679064533052150728,0.004
1679064533059846768,0.01
1679064533067542808,0.014
1679064533075238848,0.035
1679064533082934888,0.045
1679064533090630928,0.037
1679064533098326968,0.048
1679064533106023008,0.077
1679064533113719048,0.098
1679064533121415088,0.098
1679064533129111128,0.089
1679064533136807168,0.1
1679064533144503208,0.127
1679064533152199248,0.133
1679064533159895288,0.112
1679064533167591328,0.10200000000000001
1679064533175287368,0.10400000000000001
1679064533182983408,0.096
1679064533190679448,0.10200000000000001
1679064533198375488,0.131
1679064533206071528,0.146
1679064533213767568,0.14100000000000001
1679064533221463608,0.14400000000000002
1679064533229159648,0.162
1679064533236855688,0.17300000000000001
1679064533244551728,0.169
1679064533252247768,0.181
1679064533259943808,0.20600000000000002
1679064533267639848,0.20600000000000002
1679064533275335888,0.192
1679064533283031928,0.202
1679064533290727968,0.227
1679064533298424008,0.23500000000000001
1679064533306120048,0.231
1679064533313816088,0.223
1679064533321512128,0.20400000000000001
1679064533329208196,0.17500000000000002
1679064533336904654,0.158
1679064533344601112,0.166
1679064533352297570,0.162
1679064533359994028,0.106
1679064533367690486,0.039
1679064533375386944,0.041
1679064533383083402,0.062
1679064533390779860,0.048
1679064533398476318,0.018000000000000002
1679064533406172776,-0.014
1679064533413869234,-0.039
1679064533421565692,-0.037
1679064533429262150,-0.025
1679064533436958608,-0.008
1679064533444655066,0.006
1679064533452351524,-0.002
1679064533460047982,-0.018000000000000002
1679064533467744440,-0.045
1679064533475440898,-0.11800000000000001
1679064533483137356,-0.171
1679064533490833814,-0.171
1679064533498530272,-0.183
1679064533506226730,-0.20400000000000001
1679064533513923188,-0.185
1679064533521619646,-0.169
1679064533529316104,-0.183
1679064533537012562,-0.194
1679064533544709020,-0.212
1679064533552405478,-0.23700000000000002
1679064533560101936,-0.227
1679064533567798394,-0.20400000000000001
1679064533575494852,-0.198
1679064533583191310,-0.192
1679064533590887768,-0.179
1679064533598584226,-0.17300000000000001
1679064533606280684,-0.166
1679064533613977142,-0.114
1679064533621673600,0.096
1679064533629370058,0.509
1679064533637066516,0.937
1679064533644762974,0.91
1679064533652459432,0.096
1679064533660155890,-0.73
1679064533667852348,-0.584
1679064533675548806,-0.108
1679064533683245264,-0.129
1679064533690941722,-0.23500000000000001
1679064533698638180,-0.135
1679064533706334638,-0.077
1679064533714031096,-0.081
1679064533721727554,-0.06
1679064533729424012,-0.045
1679064533737120470,-0.031
1679064533744816928,0.002
1679064533752513386,0.014
1679064533760209844,0.029
1679064533767906302,0.068
1679064533775602760,0.089,,811
1679064533783299218,0.085
1679064533790995676,0.11
1679064533798692134,0.154
1679064533806388592,0.179
1679064533814085050,0.183
1679064533821781508,0.194
1679064533829477966,0.221
1679064533837174424,0.248
1679064533844870882,0.254
1679064533852567340,0.269
1679064533860263798,0.306
1679064533867960256,0.327
1679064533875656714,0.325
1679064533883353172,0.34600000000000003
1679064533891049662,0.371,62
1679064533898746120,0.34400000000000003
1679064533906442578,0.302
1679064533914139036,0.29
1679064533921835494,0.277
1679064533929531952,0.231
1679064533937228410,0.164
1679064533944924868,0.121
1679064533952621326,0.08700000000000001
1679064533960317784,0.029
1679064533968014242,-0.043000000000000003
1679064533975710700,-0.112
1679064533983407158,-0.16
1679064533991103616,-0.169
1679064533998800074,-0.164
1679064534006496532,-0.181
1679064534014192990,-0.20600000000000002
1679064534021889448,-0.20800000000000002
1679064534029585906,-0.183
1679064534037282364,-0.139
1679064534044978822,-0.127
1679064534052675280,-0.148
1679064534060371738,-0.14400000000000002
1679064534068068196,-0.108
1679064534075764654,-0.089
1679064534083461112,-0.068
1679064534091157570,-0.037
1679064534098854028,-0.027
1679064534106550486,-0.025
1679064534114246944,0.004
1679064534121943402,0.035
1679064534129639860,0.016
1679064534137336318,-0.048
1679064534145032776,-0.1
1679064534152729234,-0.10400000000000001
1679064534160425692,-0.079
1679064534168122150,-0.075
1679064534175818608,-0.079
1679064534183515066,-0.064
1679064534191211524,-0.054
1679064534198907982,-0.06
1679064534206604440,-0.058
1679064534214300898,-0.037
1679064534221997356,-0.02
1679064534229693814,-0.012
1679064534237390272,-0.014
1679064534245086730,-0.008
1679064534252783188,0.016
1679064534260479646,0.037
1679064534268176104,0.041
1679064534275872562,0.052000000000000005
1679064534283569020,0.06
1679064534291265478,0.037
1679064534298961936,0.008
1679064534306658394,-0.004
1679064534314354852,-0.025
1679064534322051310,-0.062
1679064534329747768,-0.075
1679064534337444226,-0.075
1679064534345140684,-0.077
1679064534352837142,-0.068
1679064534360533600,-0.056
1679064534368230058,-0.045
1679064534375926516,-0.039
1679064534383622974,-0.045
1679064534391319432,-0.075
1679064534399015890,-0.091
1679064534406712348,-0.075
1679064534414408806,-0.066
1679064534422105264,-0.073
1679064534429801722,-0.062
1679064534437498180,-0.045
1679064534445194638,-0.039
1679064534452891130,-0.025,63
1679064534460587170,-0.002
1679064534468283210,0.0
1679064534475979250,-0.033
1679064534483675290,-0.083
1679064534491371330,-0.106
1679064534499067370,-0.08700000000000001
1679064534506763410,-0.056
1679064534514459450,-0.033
1679064534522155490,-0.041
1679064534529851530,-0.096
1679064534537547570,-0.15
1679064534545243610,-0.15
1679064534552939650,-0.139
1679064534560635690,-0.158
1679064534568331730,-0.162
1679064534576027770,-0.131
1679064534583723810,-0.1
1679064534591419850,-0.08700000000000001
1679064534599115890,-0.081
1679064534606811930,-0.064
1679064534614507970,0.006
1679064534622204010,0.24,,847
1679064534629900050,0.665
1679064534637596090,1.043
1679064534645292130,0.851
1679064534652988170,-0.062
1679064534660684210,-0.707
1679064534668380250,-0.41300000000000003
1679064534676076290,-0.018000000000000002
1679064534683772330,-0.054
1679064534691468370,-0.081
1679064534699164410,0.0
1679064534706860450,0.006
1679064534714556490,0.0
1679064534722252530,0.05
1679064534729948570,0.08700000000000001
1679064534737644610,0.096
1679064534745340650,0.1
1679064534753036690,0.123
1679064534760732730,0.154
1679064534768428770,0.177
1679064534776124810,0.189
1679064534783820850,0.20800000000000002
1679064534791516890,0.223
1679064534799212930,0.221
1679064534806908970,0.225
1679064534814605010,0.258
1679064534822301050,0.302
1679064534829997090,0.323
1679064534837693130,0.321
1679064534845389170,0.338
1679064534853085210,0.375
1679064534860781250,0.392
1679064534868477290,0.404
1679064534876173330,0.421
1679064534883869370,0.396
1679064534891565410,0.34600000000000003
1679064534899261450,0.342
1679064534906957490,0.371
1679064534914653530,0.379
1679064534922349570,0.363
1679064534930045610,0.331
1679064534937741650,0.298
1679064534945437690,0.267
1679064534953133730,0.225
1679064534960829770,0.189
1679064534968525810,0.17500000000000002
1679064534976221850,0.131
1679064534983917890,0.041
1679064534991613930,-0.037
1679064534999309970,-0.048
1679064535007006010,-0.037
1679064535014702078,-0.06
1679064535022398536,-0.081
1679064535030094994,-0.064
1679064535037791452,-0.05
1679064535045487910,-0.052000000000000005
1679064535053184368,-0.033
1679064535060880826,-0.012
1679064535068577284,-0.054
1679064535076273742,-0.127
1679064535083970200,-0.125
1679064535091666658,-0.081
1679064535099363116,-0.077
1679064535107059574,-0.089
1679064535114756032,-0.081
1679064535122452490,-0.081
1679064535130148948,-0.121
1679064535137845406,-0.169
1679064535145541864,-0.183
1679064535153238322,-0.194
1679064535160934780,-0.23700000000000002
1679064535168631238,-0.26
1679064535176327696,-0.24
1679064535184024154,-0.225
1679064535191720612,-0.231
1679064535199417070,-0.229
1679064535207113528,-0.219
1679064535214809986,-0.212
1679064535222506444,-0.20400000000000001
1679064535230202902,-0.185
1679064535237899360,-0.158
1679064535245595818,-0.14100000000000001
1679064535253292276,-0.148
1679064535260988734,-0.139
1679064535268685192,-0.106
1679064535276381650,-0.081
1679064535284078108,-0.077
1679064535291774566,-0.068
1679064535299471024,-0.052000000000000005
1679064535307167482,-0.043000000000000003
1679064535314863940,-0.035
1679064535322560398,-0.016
1679064535330256856,0.01
1679064535337953314,0.018000000000000002
1679064535345649772,0.008
1679064535353346230,0.018000000000000002
1679064535361042688,0.052000000000000005
1679064535368739146,0.062
1679064535376435604,0.043000000000000003
1679064535384132062,0.035
1679064535391828520,0.039
1679064535399524978,0.029
1679064535407221436,0.031
1679064535414917894,0.062
1679064535422614352,0.089
1679064535430310810,0.091
1679064535438007268,0.083
1679064535445703726,0.098
1679064535453400184,0.125
1679064535461096642,0.135
1679064535468793100,0.14400000000000002
1679064535476489558,0.16
1679064535484186016,0.129
1679064535491882474,0.045
1679064535499578932,0.012
1679064535507275390,0.05
1679064535514971848,0.066
1679064535522668306,0.056
1679064535530364764,0.064
1679064535538061222,0.1
1679064535545757680,0.152
1679064535553454138,0.169
1679064535561150596,0.154
1679064535568847054,0.156
1679064535576543544,0.152,64,954
1679064535584240002,0.121
1679064535591936460,0.11
1679064535599632918,0.139
1679064535607329376,0.166
1679064535615025834,0.164
1679064535622722292,0.127
1679064535630418750,0.10200000000000001
1679064535638115208,0.083
1679064535645811666,0.054
1679064535653508124,0.17500000000000002
1679064535661204582,0.5670000000000001
1679064535668901040,1.02
1679064535676597498,1.129
1679064535684293956,0.505
1679064535691990414,-0.4
1679064535699686872,-0.47800000000000004
1679064535707383330,0.018000000000000002
1679064535715079788,0.1
1679064535722776246,-0.029
1679064535730472704,0.043000000000000003
1679064535738169162,0.10200000000000001
1679064535745865620,0.083
1679064535753562078,0.112
1679064535761258536,0.133
1679064535768954994,0.121
1679064535776651452,0.148
1679064535784347910,0.187
1679064535792044368,0.192
1679064535799740826,0.189
1679064535807437284,0.20400000000000001
1679064535815133742,0.221
1679064535822830200,0.231
1679064535830526658,0.248
1679064535838223116,0.277
1679064535845919574,0.294
1679064535853616032,0.292
1679064535861312490,0.28300000000000003
1679064535869008948,0.271
1679064535876705406,0.258
1679064535884401864,0.265
1679064535892098322,0.281
1679064535899794780,0.292
1679064535907491238,0.302
1679064535915187696,0.315
1679064535922884154,0.329
1679064535930580612,0.331
1679064535938277070,0.298
1679064535945973528,0.256
1679064535953669986,0.244
1679064535961366444,0.246
1679064535969062902,0.219
1679064535976759360,0.171
1679064535984455818,0.098
1679064535992152276,-0.016
1679064535999848734,-0.106
1679064536007545192,-0.123
1679064536015241650,-0.121
1679064536022938108,-0.129
1679064536030634566,-0.137
1679064536038331024,-0.148
1679064536046027482,-0.137
1679064536053723940,-0.112
1679064536061420398,-0.098
1679064536069116856,-0.08700000000000001
1679064536076813314,-0.064
1679064536084509772,-0.06
1679064536092206230,-0.089
1679064536099902688,-0.108
1679064536107599146,-0.123
1679064536115295604,-0.17300000000000001
1679064536122992062,-0.227
1679064536130688520,-0.233
1679064536138385010,-0.221
1679064536146081050,-0.215
1679064536153777090,-0.212
1679064536161473130,-0.202
1679064536169169170,-0.189
1679064536176865210,-0.221
1679064536184561250,-0.28300000000000003
1679064536192257290,-0.294
1679064536199953330,-0.258
1679064536207649370,-0.254
1679064536215345410,-0.271
1679064536223041450,-0.263
1679064536230737490,-0.24
1679064536238433530,-0.225
1679064536246129570,-0.217
1679064536253825610,-0.189
1679064536261521650,-0.162
1679064536269217690,-0.164
1679064536276913730,-0.166
1679064536284609770,-0.133
1679064536292305810,-0.1
1679064536300001850,-0.08700000000000001
1679064536307697890,-0.085
1679064536315393930,-0.079
1679064536323089970,-0.058
1679064536330786010,-0.041
1679064536338482050,-0.031
1679064536346178090,-0.008
1679064536353874130,0.002
1679064536361570170,-0.031
1679064536369266210,-0.048
1679064536376962250,-0.014
1679064536384658290,0.01
1679064536392354330,0.016
1679064536400050370,0.025
1679064536407746410,0.037
1679064536415442450,0.041
1679064536423138490,0.05
1679064536430834530,0.068
1679064536438530570,0.093
1679064536446226610,0.108
1679064536453922650,0.1
1679064536461618690,0.1
1679064536469314730,0.125
1679064536477010770,0.148
1679064536484706810,0.14100000000000001
1679064536492402850,0.093
1679064536500098890,0.025
1679064536507794930,0.0
1679064536515490970,0.01
1679064536523187010,0.016
1679064536530883050,0.035
1679064536538579090,0.048
1679064536546275130,0.037
1679064536553971170,0.043000000000000003
1679064536561667210,0.075
1679064536569363250,0.096
1679064536577059290,0.112
1679064536584755330,0.156
1679064536592451370,0.192
1679064536600147410,0.179
1679064536607843450,0.129
1679064536615539490,0.106
1679064536623235530,0.11
1679064536630931570,0.091
1679064536638627610,0.068
1679064536646323650,0.077
1679064536654019690,0.10200000000000001,,1073
1679064536661715730,0.106
1679064536669411770,0.112
1679064536677107810,0.131
1679064536684803850,0.133
1679064536692499890,0.164
1679064536700195958,0.398,63
1679064536707892416,0.853
1679064536715588874,1.258
1679064536723285332,1.104
1679064536730981790,0.212
1679064536738678248,-0.457
1679064536746374706,-0.20600000000000002
1679064536754071164,0.127
1679064536761767622,0.031
1679064536769464080,-0.002
1679064536777160538,0.077
1679064536784856996,0.048
1679064536792553454,0.033
1679064536800249912,0.093
1679064536807946370,0.112
1679064536815642828,0.093
1679064536823339286,0.10400000000000001
1679064536831035744,0.133
1679064536838732202,0.14400000000000002
1679064536846428660,0.129
1679064536854125118,0.108
1679064536861821576,0.10200000000000001
1679064536869518034,0.096
1679064536877214492,0.091
1679064536884910950,0.11
1679064536892607408,0.15
1679064536900303866,0.17300000000000001
1679064536908000324,0.177
1679064536915696782,0.185
1679064536923393240,0.2
1679064536931089698,0.21
1679064536938786156,0.223
1679064536946482614,0.252
1679064536954179072,0.279
1679064536961875530,0.281
1679064536969571988,0.28300000000000003
1679064536977268446,0.304
1679064536984964904,0.329
1679064536992661362,0.338
1679064537000357820,0.281
1679064537008054278,0.17300000000000001
1679064537015750736,0.089
1679064537023447194,0.033
1679064537031143652,-0.02
1679064537038840110,-0.048
1679064537046536568,-0.077
1679064537054233026,-0.131
1679064537061929484,-0.154
1679064537069625942,-0.131
1679064537077322400,-0.125
1679064537085018858,-0.131
1679064537092715316,-0.133
1679064537100411774,-0.16
1679064537108108232,-0.187
1679064537115804690,-0.183
1679064537123501148,-0.169
1679064537131197606,-0.152
1679064537138894064,-0.139
1679064537146590522,-0.135
1679064537154286980,-0.116
1679064537161983438,-0.10400000000000001
1679064537169679896,-0.129
1679064537177376354,-0.139
1679064537185072812,-0.135
1679064537192769270,-0.177
1679064537200465728,-0.221
1679064537208162186,-0.20600000000000002
1679064537215858644,-0.192
1679064537223555102,-0.202
1679064537231251560,-0.20400000000000001
1679064537238948018,-0.212
1679064537246644476,-0.212
1679064537254340934,-0.194
1679064537262037424,-0.189
1679064537269733464,-0.181
1679064537277429504,-0.162
1679064537285125544,-0.183
1679064537292821584,-0.244
1679064537300517624,-0.269
1679064537308213664,-0.242
1679064537315909704,-0.217
1679064537323605744,-0.227
1679064537331301784,-0.227
1679064537338997824,-0.225
1679064537346693864,-0.258
1679064537354389904,-0.277
1679064537362085944,-0.246
1679064537369781984,-0.221
1679064537377478024,-0.227
1679064537385174064,-0.223
1679064537392870104,-0.2
1679064537400566144,-0.171
1679064537408262184,-0.148
1679064537415958224,-0.137
1679064537423654264,-0.133
1679064537431350304,-0.11
1679064537439046344,-0.08700000000000001
1679064537446742384,-0.075
1679064537454438424,-0.045
1679064537462134464,-0.018000000000000002
1679064537469830504,-0.031
1679064537477526544,-0.041
1679064537485222584,-0.002
1679064537492918624,0.043000000000000003
1679064537500614664,0.039
1679064537508310704,-0.018000000000000002
1679064537516006744,-0.052000000000000005
1679064537523702784,-0.031
1679064537531398824,-0.029
1679064537539094864,-0.035
1679064537546790904,-0.004
1679064537554486944,0.022
1679064537562182984,0.01
1679064537569879024,0.025
1679064537577575064,0.093
1679064537585271104,0.127
1679064537592967144,0.081
1679064537600663184,0.037
1679064537608359224,0.037
1679064537616055264,0.035
1679064537623751304,0.016
1679064537631447344,0.031
1679064537639143384,0.07
1679064537646839424,0.073
1679064537654535464,0.054,,999
1679064537662231504,0.075
1679064537669927544,0.106
1679064537677623584,0.131
1679064537685319624,0.263
1679064537693015664,0.628
1679064537700711704,1.095
1679064537708407744,1.258
1679064537716103784,0.649
1679064537723799824,-0.28800000000000003
1679064537731495864,-0.417
1679064537739191904,0.043000000000000003
1679064537746887944,0.162
1679064537754583984,0.085
1679064537762280024,0.154
1679064537769976064,0.192
1679064537777672104,0.162
1679064537785368144,0.196
1679064537793064184,0.225
1679064537800760224,0.20400000000000001
1679064537808456264,0.20800000000000002
1679064537816152304,0.246
1679064537823848374,0.271,63
1679064537831544832,0.271
1679064537839241290,0.244
1679064537846937748,0.217
1679064537854634206,0.231
1679064537862330664,0.25
1679064537870027122,0.254
1679064537877723580,0.271
1679064537885420038,0.271
1679064537893116496,0.221
1679064537900812954,0.192
1679064537908509412,0.229
1679064537916205870,0.256
1679064537923902328,0.242
1679064537931598786,0.244
1679064537939295244,0.271
1679064537946991702,0.29
1679064537954688160,0.298
1679064537962384618,0.319
1679064537970081076,0.333
1679064537977777534,0.319
1679064537985473992,0.298
1679064537993170450,0.298
1679064538000866908,0.25
1679064538008563366,0.11
1679064538016259824,-0.016
1679064538023956282,-0.062
1679064538031652740,-0.089
1679064538039349198,-0.129
1679064538047045656,-0.146
1679064538054742114,-0.139
1679064538062438572,-0.135
1679064538070135030,-0.152
1679064538077831488,-0.179
1679064538085527946,-0.2
1679064538093224404,-0.20400000000000001
1679064538100920862,-0.194
1679064538108617320,-0.185
1679064538116313778,-0.171
1679064538124010236,-0.152
1679064538131706694,-0.14400000000000002
1679064538139403152,-0.123
1679064538147099610,-0.081
1679064538154796068,-0.064
1679064538162492526,-0.10200000000000001
1679064538170188984,-0.135
1679064538177885442,-0.137
1679064538185581900,-0.158
1679064538193278358,-0.192
1679064538200974816,-0.192
1679064538208671274,-0.185
1679064538216367732,-0.196
1679064538224064190,-0.198
1679064538231760648,-0.181
1679064538239457106,-0.16
1679064538247153564,-0.158
1679064538254850022,-0.171
1679064538262546480,-0.169
1679064538270242938,-0.14100000000000001
1679064538277939396,-0.127
1679064538285635854,-0.127
1679064538293332312,-0.11800000000000001
1679064538301028770,-0.108
1679064538308725228,-0.108
1679064538316421686,-0.10400000000000001
1679064538324118144,-0.1
1679064538331814602,-0.11800000000000001
1679064538339511060,-0.146
1679064538347207518,-0.154
1679064538354903976,-0.139
1679064538362600434,-0.116
1679064538370296892,-0.106
1679064538377993350,-0.096
1679064538385689840,-0.077
1679064538393385880,-0.064
1679064538401081920,-0.066
1679064538408777960,-0.054
1679064538416474000,-0.025
1679064538424170040,0.002
1679064538431866080,0.006
1679064538439562120,-0.004
1679064538447258160,0.006
1679064538454954200,0.018000000000000002
1679064538462650240,-0.016
1679064538470346280,-0.056
1679064538478042320,-0.045
1679064538485738360,-0.035
1679064538493434400,-0.05
1679064538501130440,-0.045
1679064538508826480,-0.054
1679064538516522520,-0.121
1679064538524218560,-0.16
1679064538531914600,-0.14100000000000001
1679064538539610640,-0.116
1679064538547306680,-0.096
1679064538555002720,-0.062
1679064538562698760,-0.012
1679064538570394800,-0.002
1679064538578090840,-0.07
1679064538585786880,-0.125
1679064538593482920,-0.10400000000000001
1679064538601178960,-0.091
1679064538608875000,-0.10200000000000001
1679064538616571040,-0.096
1679064538624267080,-0.079
1679064538631963120,-0.064
1679064538639659160,-0.045
1679064538647355200,-0.027
1679064538655051240,-0.012
1679064538662747280,0.045
1679064538670443320,0.246
1679064538678139360,0.655
1679064538685835400,1.095,,1034
1679064538693531440,1.064
1679064538701227480,0.23500000000000001
1679064538708923520,-0.542
1679064538716619560,-0.338
1679064538724315600,0.123
1679064538732011640,0.079
1679064538739707680,-0.002
1679064538747403720,0.112
1679064538755099760,0.139
1679064538762795800,0.093
1679064538770491840,0.114
1679064538778187880,0.158
1679064538785883920,0.171
1679064538793579960,0.179
1679064538801276000,0.196
1679064538808972040,0.20600000000000002
1679064538816668080,0.20600000000000002
1679064538824364120,0.194
1679064538832060160,0.189
1679064538839756200,0.215
1679064538847452240,0.231
1679064538855148280,0.223
1679064538862844320,0.227
1679064538870540360,0.26
1679064538878236400,0.279
1679064538885932440,0.28300000000000003
1679064538893628480,0.304
1679064538901324520,0.327
1679064538909020560,0.333
1679064538916716600,0.34800000000000003
1679064538924412640,0.377
1679064538932108680,0.402
1679064538939804720,0.41100000000000003
1679064538947500788,0.402,62
1679064538955197246,0.4
1679064538962893704,0.419
1679064538970590162,0.421
1679064538978286620,0.396
1679064538985983078,0.361
1679064538993679536,0.304
1679064539001375994,0.20400000000000001
1679064539009072452,0.1
1679064539016768910,0.014
1679064539024465368,-0.073
1679064539032161826,-0.14400000000000002
1679064539039858284,-0.185
1679064539047554742,-0.20400000000000001
1679064539055251200,-0.189
1679064539062947658,-0.187
1679064539070644116,-0.217
1679064539078340574,-0.229
1679064539086037032,-0.221
1679064539093733490,-0.227
1679064539101429948,-0.215
1679064539109126406,-0.17300000000000001
1679064539116822864,-0.152
1679064539124519322,-0.156
1679064539132215780,-0.15
1679064539139912238,-0.127
1679064539147608696,-0.106
1679064539155305154,-0.098
1679064539163001612,-0.079
1679064539170698070,-0.058
1679064539178394528,-0.062
1679064539186090986,-0.073
1679064539193787444,-0.062
1679064539201483902,-0.07
1679064539209180360,-0.10200000000000001
1679064539216876818,-0.137
1679064539224573276,-0.171
1679064539232269734,-0.183
1679064539239966192,-0.177
1679064539247662650,-0.177
1679064539255359108,-0.17500000000000002
1679064539263055566,-0.164
1679064539270752024,-0.171
1679064539278448482,-0.179
1679064539286144940,-0.154
1679064539293841398,-0.127
1679064539301537856,-0.127
1679064539309234314,-0.146
1679064539316930772,-0.17500000000000002
1679064539324627230,-0.187
1679064539332323688,-0.177
1679064539340020146,-0.16
1679064539347716604,-0.139
1679064539355413062,-0.127
1679064539363109520,-0.133
1679064539370805978,-0.129
1679064539378502436,-0.093
1679064539386198894,-0.068
1679064539393895352,-0.066
1679064539401591810,-0.054
1679064539409288268,-0.035
1679064539416984726,-0.031
1679064539424681184,-0.027
1679064539432377642,-0.006
1679064539440074100,0.025
1679064539447770558,0.037
1679064539455467016,0.027
1679064539463163474,0.033
1679064539470859932,0.062
1679064539478556390,0.075
1679064539486252848,0.075
1679064539493949306,0.091
1679064539501645764,0.106
1679064539509342254,0.106,62
1679064539517038294,0.093
1679064539524734334,0.062
1679064539532430374,0.052000000000000005
1679064539540126414,0.066
1679064539547822454,0.035
1679064539555518494,-0.016
1679064539563214534,-0.054
1679064539570910574,-0.129
1679064539578606614,-0.198
1679064539586302654,-0.192
1679064539593998694,-0.17300000000000001
1679064539601694734,-0.187
1679064539609390774,-0.17300000000000001
1679064539617086814,-0.131
1679064539624782854,-0.112
1679064539632478894,-0.1
1679064539640174934,0.031
1679064539647870974,0.4
1679064539655567014,0.88
1679064539663263054,1.062
1679064539670959094,0.488
1679064539678655134,-0.438
1679064539686351174,-0.578
1679064539694047214,-0.08700000000000001
1679064539701743254,0.045
1679064539709439294,-0.06
1679064539717135334,0.006
1679064539724831374,0.06
1679064539732527414,0.022,,1044
1679064539740223454,0.043000000000000003
1679064539747919494,0.089
1679064539755615534,0.093
1679064539763311574,0.108
1679064539771007614,0.14400000000000002
1679064539778703654,0.148
1679064539786399694,0.139
1679064539794095734,0.164
1679064539801791774,0.185
1679064539809487814,0.156
1679064539817183854,0.127
1679064539824879894,0.14100000000000001
1679064539832575934,0.16
1679064539840271974,0.164
1679064539847968014,0.179
1679064539855664054,0.215
1679064539863360094,0.242
1679064539871056134,0.242
1679064539878752174,0.248
1679064539886448214,0.28300000000000003
1679064539894144254,0.317
1679064539901840294,0.331
1679064539909536334,0.34400000000000003
1679064539917232374,0.356
1679064539924928414,0.365
1679064539932624454,0.365
1679064539940320494,0.365
1679064539948016534,0.367
1679064539955712574,0.35000000000000003
1679064539963408614,0.296
1679064539971104654,0.23700000000000002
1679064539978800694,0.217
1679064539986496734,0.2
1679064539994192774,0.171
1679064540001888814,0.156
1679064540009584854,0.152
1679064540017280894,0.131
1679064540024976934,0.075
1679064540032672974,0.029
1679064540040369014,0.037
1679064540048065054,0.045
1679064540055761094,0.008
1679064540063457134,-0.008
1679064540071153202,0.02
1679064540078849660,0.016
1679064540086546118,-0.025
1679064540094242576,-0.035
1679064540101939034,-0.031
1679064540109635492,-0.075
1679064540117331950,-0.14100000000000001
1679064540125028408,-0.14400000000000002
1679064540132724866,-0.112
1679064540140421324,-0.123
1679064540148117782,-0.146
1679064540155814240,-0.123
1679064540163510698,-0.1
1679064540171207156,-0.106
1679064540178903614,-0.10200000000000001
1679064540186600072,-0.075
1679064540194296530,-0.068
1679064540201992988,-0.085
1679064540209689446,-0.079
1679064540217385904,-0.045
1679064540225082362,-0.029
1679064540232778820,-0.035
1679064540240475278,-0.058
1679064540248171736,-0.083
1679064540255868194,-0.096
1679064540263564652,-0.11800000000000001
1679064540271261110,-0.14100000000000001
1679064540278957568,-0.137
1679064540286654026,-0.133
1679064540294350484,-0.154
1679064540302046942,-0.179
1679064540309743400,-0.181
1679064540317439858,-0.17500000000000002
1679064540325136316,-0.187
1679064540332832774,-0.196
1679064540340529232,-0.179
1679064540348225690,-0.166
1679064540355922148,-0.16
1679064540363618606,-0.137
1679064540371315064,-0.112
1679064540379011522,-0.121
1679064540386707980,-0.131
1679064540394404438,-0.106
1679064540402100896,-0.079
1679064540409797354,-0.073
1679064540417493812,-0.068
1679064540425190270,-0.054
1679064540432886728,-0.035
1679064540440583186,-0.027
1679064540448279644,-0.022
1679064540455976102,0.0
1679064540463672560,0.02
1679064540471369018,0.016
1679064540479065476,0.02
1679064540486761934,0.056
1679064540494458392,0.106
1679064540502154850,0.14400000000000002
1679064540509851308,0.137
1679064540517547766,0.112
1679064540525244224,0.10400000000000001
1679064540532940682,0.058
1679064540540637140,-0.035
1679064540548333598,-0.091
1679064540556030056,-0.10200000000000001
1679064540563726514,-0.116
1679064540571422972,-0.112
1679064540579119430,-0.077
1679064540586815888,-0.06
1679064540594512346,-0.064
1679064540602208804,0.016
1679064540609905262,0.306
1679064540617601720,0.766
1679064540625298178,1.104
1679064540632994668,0.801,62
1679064540640690778,-0.129
1679064540648386888,-0.622
1679064540656082998,-0.273
1679064540663779108,0.035
1679064540671475218,-0.01
1679064540679171328,-0.05
1679064540686867438,-0.043000000000000003
1679064540694563548,-0.066
1679064540702259658,-0.068
1679064540709955768,-0.085
1679064540717651878,-0.131,,988
1679064540725347988,-0.11800000000000001
1679064540733044098,-0.073
1679064540740740208,-0.07
1679064540748436318,-0.079
1679064540756132428,-0.048
1679064540763828538,-0.012
1679064540771524648,0.002
1679064540779220758,0.022
1679064540786916868,0.029
1679064540794612978,-0.008
1679064540802309088,-0.029
1679064540810005198,0.002
1679064540817701308,0.031
1679064540825397418,0.054
1679064540833093528,0.079
1679064540840789638,0.089
1679064540848485748,0.114
1679064540856181858,0.154
1679064540863877968,0.179
1679064540871574078,0.202
1679064540879270188,0.231
1679064540886966298,0.24
1679064540894662408,0.23500000000000001
1679064540902358518,0.254
1679064540910054628,0.271
1679064540917750738,0.26
1679064540925446848,0.229
1679064540933142958,0.183
1679064540940839068,0.139
1679064540948535178,0.108
1679064540956231288,0.083
1679064540963927398,0.075
1679064540971623508,0.081
1679064540979319618,0.073
1679064540987015728,0.058
1679064540994711838,0.079
1679064541002407948,0.112
1679064541010104058,0.121
1679064541017800168,0.116
1679064541025496278,0.11800000000000001
1679064541033192388,0.125
1679064541040888498,0.10200000000000001
1679064541048584608,0.054
1679064541056280718,0.05
1679064541063976828,0.07
1679064541071672938,0.037
1679064541079369048,-0.004
1679064541087065158,0.01
1679064541094761268,0.031
1679064541102457378,0.02
1679064541110153488,0.01
1679064541117849598,0.018000000000000002
1679064541125545708,0.018000000000000002
1679064541133241818,0.004
1679064541140937928,0.006
1679064541148634038,0.035
1679064541156330148,0.054
1679064541164026258,0.045
1679064541171722368,0.048
1679064541179418478,0.077
1679064541187114588,0.091
1679064541194810704,0.083
1679064541202507092,0.089
1679064541210203480,0.096
1679064541217899868,0.089
1679064541225596256,0.085
1679064541233292644,0.068
1679064541240989032,0.048
1679064541248685420,0.02
1679064541256381808,-0.027
1679064541264078196,-0.052000000000000005
1679064541271774584,-0.035
1679064541279470972,-0.039
1679064541287167360,-0.077
1679064541294863748,-0.096
1679064541302560136,-0.106
1679064541310256524,-0.154
1679064541317952912,-0.20400000000000001
1679064541325649300,-0.194
1679064541333345688,-0.164
1679064541341042076,-0.179
1679064541348738464,-0.2
1679064541356434852,-0.181
1679064541364131240,-0.15
1679064541371827628,-0.139
1679064541379524016,-0.129
1679064541387220404,-0.10200000000000001
1679064541394916792,-0.085
1679064541402613180,-0.066
1679064541410309568,-0.016
1679064541418005956,0.018000000000000002
1679064541425702344,0.004
1679064541433398732,-0.014
1679064541441095120,-0.022
1679064541448791508,-0.031
1679064541456487896,-0.027
1679064541464184284,-0.014
1679064541471880672,0.0
1679064541479577060,0.018000000000000002
1679064541487273448,0.022
1679064541494969836,0.018000000000000002
1679064541502666224,0.033
1679064541510362612,0.1
1679064541518059000,0.321
1679064541525755388,0.741
1679064541533451776,1.145
1679064541541148164,1.033
1679064541548844552,0.114
1679064541556540940,-0.73
1679064541564237328,-0.534
1679064541571933716,-0.056
1679064541579630104,-0.1
1679064541587326492,-0.192
1679064541595022880,-0.079
1679064541602719268,-0.039
1679064541610415656,-0.066
1679064541618112044,-0.035
1679064541625808432,-0.004
1679064541633504820,0.002
1679064541641201208,0.018000000000000002
1679064541648897596,0.043000000000000003
1679064541656593984,0.07
1679064541664290372,0.091
1679064541671986760,0.096
1679064541679683148,0.1
1679064541687379536,0.131
1679064541695075924,0.166,,982
1679064541702772312,0.181
1679064541710468700,0.194
1679064541718165088,0.215
1679064541725861476,0.233
1679064541733557864,0.248
1679064541741254252,0.273
1679064541748950640,0.304
1679064541756647084,0.321,62
1679064541764343542,0.319
1679064541772040000,0.313
1679064541779736458,0.304
1679064541787432916,0.292
1679064541795129374,0.292
1679064541802825832,0.3
1679064541810522290,0.294
1679064541818218748,0.252
1679064541825915206,0.177
1679064541833611664,0.121
1679064541841308122,0.093
1679064541849004580,0.043000000000000003
1679064541856701038,-0.014
1679064541864397496,-0.033
1679064541872093954,-0.025
1679064541879790412,-0.027
1679064541887486870,-0.027
1679064541895183328,-0.01
1679064541902879786,0.002
1679064541910576244,0.002
1679064541918272702,0.012
1679064541925969160,0.037
1679064541933665618,0.066
1679064541941362076,0.073
1679064541949058534,0.062
1679064541956754992,0.077
1679064541964451450,0.108
1679064541972147908,0.121
1679064541979844366,0.127
1679064541987540824,0.148
1679064541995237282,0.16
1679064542002933740,0.15
1679064542010630198,0.14400000000000002
1679064542018326656,0.139
1679064542026023114,0.1
1679064542033719572,0.058
1679064542041416030,0.048
1679064542049112488,0.027
1679064542056808946,-0.058
1679064542064505404,-0.152
1679064542072201862,-0.162
1679064542079898320,-0.139
1679064542087594778,-0.158
1679064542095291236,-0.17500000000000002
1679064542102987694,-0.154
1679064542110684152,-0.133
1679064542118380610,-0.131
1679064542126077068,-0.129
1679064542133773526,-0.121
1679064542141469984,-0.106
1679064542149166442,-0.091
1679064542156862900,-0.083
1679064542164559358,-0.064
1679064542172255816,-0.041
1679064542179952274,-0.045
1679064542187648732,-0.05
1679064542195345190,-0.033
1679064542203041648,-0.016
1679064542210738106,-0.025
1679064542218434564,-0.054
1679064542226131022,-0.079
1679064542233827480,-0.10400000000000001
1679064542241523938,-0.135
1679064542249220396,-0.14400000000000002
1679064542256916854,-0.125
1679064542264613312,-0.133
1679064542272309770,-0.177
1679064542280006228,-0.194
1679064542287702686,-0.166
1679064542295399144,-0.154
1679064542303095602,-0.158
1679064542310792060,-0.152
1679064542318488550,-0.14400000000000002
1679064542326184590,-0.137
1679064542333880630,-0.127
1679064542341576670,-0.10200000000000001
1679064542349272710,-0.064
1679064542356968750,-0.025
1679064542364664790,-0.006
1679064542372360830,-0.014
1679064542380056870,-0.022
1679064542387752910,-0.045
1679064542395448950,-0.106
1679064542403144990,-0.15
1679064542410841030,-0.14400000000000002
1679064542418537070,-0.137
1679064542426233110,-0.139
1679064542433929150,-0.114
1679064542441625190,-0.081
1679064542449321230,-0.077
1679064542457017270,-0.083
1679064542464713310,0.006
1679064542472409350,0.315
1679064542480105390,0.78
1679064542487801430,1.106
1679064542495497470,0.784
1679064542503193510,-0.177
1679064542510889550,-0.653
1679064542518585590,-0.244
1679064542526281630,0.041
1679064542533977670,-0.073
1679064542541673710,-0.079
1679064542549369750,-0.004
1679064542557065790,-0.031
1679064542564761830,-0.079
1679064542572457870,-0.11
1679064542580153910,-0.112
1679064542587849950,-0.08700000000000001
1679064542595545990,-0.081
1679064542603242030,-0.085
1679064542610938070,-0.058
1679064542618634110,-0.012
1679064542626330150,0.01
1679064542634026190,0.018000000000000002
1679064542641722230,0.031
1679064542649418270,0.058
1679064542657114310,0.089
1679064542664810350,0.106
1679064542672506390,0.127,,973
1679064542680202430,0.158
1679064542687898470,0.169
1679064542695594510,0.171
1679064542703290550,0.20600000000000002
1679064542710986590,0.25
1679064542718682630,0.273
1679064542726378670,0.28300000000000003
1679064542734074710,0.296
1679064542741770750,0.317
1679064542749466790,0.329
1679064542757162830,0.315
1679064542764858870,0.281
1679064542772554910,0.244
1679064542780250950,0.2
1679064542787946990,0.158
1679064542795643030,0.129
1679064542803339070,0.11
1679064542811035110,0.083
1679064542818731150,0.054
1679064542826427190,0.043000000000000003
1679064542834123230,0.048
1679064542841819270,0.052000000000000005
1679064542849515310,0.058
1679064542857211350,0.079
1679064542864907390,0.096
1679064542872603430,0.089
1679064542880299498,0.093,62
1679064542887995538,0.123
1679064542895691578,0.148
1679064542903387618,0.152
1679064542911083658,0.16
1679064542918779698,0.166
1679064542926475738,0.15
1679064542934171778,0.10400000000000001
1679064542941867818,0.077
1679064542949563858,0.091
1679064542957259898,0.098
1679064542964955938,0.077
1679064542972651978,0.077
1679064542980348018,0.1
1679064542988044058,0.11
1679064542995740098,0.106
1679064543003436138,0.098
1679064543011132178,0.056
1679064543018828218,-0.002
1679064543026524258,-0.037
1679064543034220298,-0.052000000000000005
1679064543041916338,-0.054
1679064543049612378,-0.06
1679064543057308418,-0.089
1679064543065004458,-0.139
1679064543072700498,-0.196
1679064543080396538,-0.217
1679064543088092578,-0.20400000000000001
1679064543095788618,-0.192
1679064543103484658,-0.192
1679064543111180698,-0.192
1679064543118876738,-0.177
1679064543126572778,-0.148
1679064543134268818,-0.127
1679064543141964858,-0.131
1679064543149660898,-0.131
1679064543157356938,-0.108
1679064543165052978,-0.085
1679064543172749018,-0.079
1679064543180445058,-0.077
1679064543188141098,-0.089
1679064543195837138,-0.123
1679064543203533178,-0.156
1679064543211229218,-0.177
1679064543218925258,-0.17500000000000002
1679064543226621298,-0.166
1679064543234317338,-0.17300000000000001
1679064543242013378,-0.185
1679064543249709418,-0.198
1679064543257405458,-0.229
1679064543265101498,-0.254
1679064543272797538,-0.233
1679064543280493578,-0.215
1679064543288189618,-0.225
1679064543295885658,-0.227
1679064543303581698,-0.2
1679064543311277738,-0.169
1679064543318973778,-0.154
1679064543326669818,-0.14400000000000002
1679064543334365858,-0.123
1679064543342061898,-0.079
1679064543349757938,-0.033
1679064543357453978,-0.025
1679064543365150018,-0.035
1679064543372846058,-0.033
1679064543380542098,-0.045
1679064543388238138,-0.07
1679064543395934178,-0.056
1679064543403630218,-0.02
1679064543411326258,-0.01
1679064543419022298,-0.012
1679064543426718338,0.004
1679064543434414378,0.016
1679064543442110446,0.022,62
1679064543449806486,0.096
1679064543457502526,0.375
1679064543465198566,0.8280000000000001
1679064543472894606,1.141
1679064543480590646,0.8280000000000001
1679064543488286686,-0.112
1679064543495982726,-0.655
1679064543503678766,-0.319
1679064543511374806,0.0
1679064543519070846,-0.093
1679064543526766886,-0.121
1679064543534462926,-0.037
1679064543542158966,-0.035
1679064543549855006,-0.029
1679064543557551046,0.018000000000000002
1679064543565247086,0.002
1679064543572943126,-0.066
1679064543580639166,-0.10200000000000001
1679064543588335206,-0.085
1679064543596031246,-0.066
1679064543603727286,-0.06
1679064543611423326,-0.039
1679064543619119366,-0.02
1679064543626815406,-0.002
1679064543634511446,0.029,,965
1679064543642207486,0.064
1679064543649903526,0.075
1679064543657599566,0.073
1679064543665295606,0.1
1679064543672991646,0.14100000000000001
1679064543680687686,0.162
1679064543688383726,0.183
1679064543696079766,0.219
1679064543703775806,0.23500000000000001
1679064543711471846,0.23700000000000002
1679064543719167886,0.26
1679064543726863926,0.302
1679064543734559966,0.333
1679064543742256006,0.336
1679064543749952046,0.294
1679064543757648086,0.254
1679064543765344126,0.246
1679064543773040166,0.223
1679064543780736206,0.183
1679064543788432246,0.156
1679064543796128286,0.123
1679064543803824326,0.083
1679064543811520366,0.073
1679064543819216406,0.085
1679064543826912446,0.096
1679064543834608486,0.1
1679064543842304526,0.091
1679064543850000566,0.096
1679064543857696606,0.114
1679064543865392646,0.127
1679064543873088686,0.139
1679064543880784726,0.162
1679064543888480766,0.171
1679064543896176806,0.162
1679064543903872846,0.177
1679064543911568886,0.20800000000000002
1679064543919264926,0.221
1679064543926960966,0.221
1679064543934657006,0.219
1679064543942353046,0.219
1679064543950049086,0.219
1679064543957745126,0.223
1679064543965441166,0.24
1679064543973137206,0.252
1679064543980833246,0.231
1679064543988529286,0.183
1679064543996225326,0.127
1679064544003921394,0.08700000000000001
1679064544011617504,0.068
1679064544019313614,0.052000000000000005
1679064544027009724,0.039
1679064544034705834,0.018000000000000002
1679064544042401944,-0.05
1679064544050098054,-0.116
1679064544057794164,-0.108
1679064544065490274,-0.091
1679064544073186384,-0.139
1679064544080882494,-0.20400000000000001
1679064544088578604,-0.21
1679064544096274714,-0.185
1679064544103970824,-0.185
1679064544111666934,-0.187
1679064544119363044,-0.171
1679064544127059154,-0.158
1679064544134755264,-0.154
1679064544142451374,-0.146
1679064544150147484,-0.146
1679064544157843594,-0.17500000000000002
1679064544165539704,-0.215
1679064544173235814,-0.23700000000000002
1679064544180931924,-0.23700000000000002
1679064544188628034,-0.233
1679064544196324144,-0.23500000000000001
1679064544204020254,-0.227
1679064544211716364,-0.219
1679064544219412474,-0.223
1679064544227108584,-0.215
1679064544234804694,-0.20600000000000002
1679064544242500804,-0.229
1679064544250196914,-0.263
1679064544257893024,-0.273
1679064544265589134,-0.25
1679064544273285244,-0.225
1679064544280981354,-0.217
1679064544288677464,-0.202
1679064544296373574,-0.17300000000000001
1679064544304069684,-0.158
1679064544311765794,-0.152
1679064544319461904,-0.11800000000000001
1679064544327158014,-0.052000000000000005
1679064544334854124,-0.008
1679064544342550234,-0.025
1679064544350246344,-0.052000000000000005
1679064544357942454,-0.043000000000000003
1679064544365638564,-0.039
1679064544373334674,-0.05
1679064544381030784,-0.035
1679064544388726894,-0.006
1679064544396423004,0.0
1679064544404119114,-0.002
1679064544411815224,0.016
1679064544419511334,0.045
1679064544427207444,0.068
1679064544434903554,0.169
1679064544442599664,0.488
1679064544450295774,0.96
1679064544457991884,1.202
1679064544465687994,0.6970000000000001
1679064544473384104,-0.254
1679064544481080214,-0.505
1679064544488776324,-0.079
1679064544496472434,0.062
1679064544504168544,-0.039
1679064544511864654,0.012
1679064544519560764,0.068
1679064544527256874,0.039
1679064544534952984,0.05
1679064544542649094,0.08700000000000001
1679064544550345204,0.096,,910
1679064544558041314,0.10400000000000001
1679064544565737430,0.137,62
1679064544573433818,0.162
1679064544581130206,0.135
1679064544588826594,0.073
1679064544596522982,0.06
1679064544604219370,0.096
1679064544611915758,0.10400000000000001
1679064544619612146,0.10200000000000001
1679064544627308534,0.11800000000000001
1679064544635004922,0.125
1679064544642701310,0.096
1679064544650397698,0.07
1679064544658094086,0.1
1679064544665790474,0.129
1679064544673486862,0.123
1679064544681183250,0.133
1679064544688879638,0.177
1679064544696576026,0.20600000000000002
1679064544704272414,0.215
1679064544711968802,0.229
1679064544719665190,0.24
1679064544727361578,0.233
1679064544735057966,0.215
1679064544742754354,0.196
1679064544750450742,0.187
1679064544758147130,0.158
1679064544765843518,0.093
1679064544773539906,0.052000000000000005
1679064544781236294,0.048
1679064544788932682,0.037
1679064544796629070,0.022
1679064544804325458,0.027
1679064544812021846,0.035
1679064544819718234,0.033
1679064544827414622,0.041
1679064544835111010,0.068
1679064544842807398,0.096
1679064544850503786,0.10200000000000001
1679064544858200174,0.096
1679064544865896562,0.11
1679064544873592950,0.139
1679064544881289338,0.152
1679064544888985726,0.156
1679064544896682114,0.162
1679064544904378502,0.137
1679064544912074890,0.10400000000000001
1679064544919771278,0.108
1679064544927467666,0.127
1679064544935164054,0.131
1679064544942860442,0.121
1679064544950556830,0.108
1679064544958253218,0.11
1679064544965949606,0.127
1679064544973645994,0.127
1679064544981342382,0.098
1679064544989038770,0.077
1679064544996735158,0.068
1679064545004431546,0.052000000000000005
1679064545012127934,0.052000000000000005
1679064545019824322,0.066
1679064545027520710,0.073
1679064545035217098,0.06
1679064545042913486,0.052000000000000005
1679064545050609874,0.062
1679064545058306262,0.058
1679064545066002650,0.025
1679064545073699038,0.004
1679064545081395426,-0.018000000000000002
1679064545089091814,-0.096
1679064545096788202,-0.181
1679064545104484590,-0.194
1679064545112180978,-0.171
1679064545119877366,-0.177
1679064545127573810,-0.194
1679064545135269850,-0.187
1679064545142965890,-0.17500000000000002
1679064545150661930,-0.17300000000000001
1679064545158357970,-0.169
1679064545166054010,-0.14400000000000002
1679064545173750050,-0.139
1679064545181446090,-0.194
1679064545189142130,-0.244
1679064545196838170,-0.223
1679064545204534210,-0.194
1679064545212230250,-0.2
1679064545219926290,-0.217
1679064545227622330,-0.244
1679064545235318370,-0.258
1679064545243014410,-0.246
1679064545250710450,-0.225
1679064545258406490,-0.202
1679064545266102530,-0.183
1679064545273798570,-0.183
1679064545281494610,-0.171
1679064545289190650,-0.135
1679064545296886690,-0.112
1679064545304582730,-0.10400000000000001
1679064545312278770,-0.085
1679064545319974810,-0.06
1679064545327670850,-0.045
1679064545335366890,-0.022
1679064545343062930,0.029
1679064545350758970,0.081
1679064545358455010,0.073
1679064545366151050,0.037
1679064545373847090,0.039
1679064545381543130,0.05
1679064545389239170,0.043000000000000003
1679064545396935210,0.05
1679064545404631250,0.07
1679064545412327290,0.075
1679064545420023330,0.07
1679064545427719370,0.083
1679064545435415410,0.1
1679064545443111450,0.133
1679064545450807490,0.275
1679064545458503530,0.624
1679064545466199570,1.072
1679064545473895610,1.198
1679064545481591650,0.542
1679064545489287690,-0.388
1679064545496983730,-0.467,,952
1679064545504679770,0.014
1679064545512375810,0.089
1679064545520071850,-0.037
1679064545527767890,0.045
1679064545535463930,0.116
1679064545543159970,0.079
1679064545550856010,0.081
1679064545558552050,0.121
1679064545566248090,0.135
1679064545573944130,0.139
1679064545581640170,0.164
1679064545589336210,0.192
1679064545597032250,0.15
1679064545604728290,0.058
1679064545612424330,0.043000000000000003
1679064545620120370,0.091
1679064545627816410,0.10400000000000001
1679064545635512450,0.1
1679064545643208490,0.114
1679064545650904530,0.139
1679064545658600570,0.156
1679064545666296610,0.169
1679064545673992650,0.196
1679064545681688690,0.229
1679064545689384758,0.24,62
1679064545697080798,0.23500000000000001
1679064545704776838,0.258
1679064545712472878,0.281
1679064545720168918,0.254
1679064545727864958,0.219
1679064545735560998,0.221
1679064545743257038,0.225
1679064545750953078,0.183
1679064545758649118,0.127
1679064545766345158,0.108
1679064545774041198,0.089
1679064545781737238,0.022
1679064545789433278,-0.035
1679064545797129318,-0.039
1679064545804825358,-0.039
1679064545812521398,-0.05
1679064545820217438,-0.052000000000000005
1679064545827913478,-0.043000000000000003
1679064545835609518,-0.035
1679064545843305558,-0.027
1679064545851001598,-0.031
1679064545858697638,-0.037
1679064545866393678,-0.045
1679064545874089718,-0.06
1679064545881785758,-0.056
1679064545889481798,-0.022
1679064545897177838,-0.006
1679064545904873878,-0.006
1679064545912569918,0.004
1679064545920265958,0.018000000000000002
1679064545927961998,0.016
1679064545935658038,0.016
1679064545943354078,0.035
1679064545951050118,0.06
1679064545958746158,0.06
1679064545966442198,0.018000000000000002
1679064545974138238,-0.004
1679064545981834278,0.018000000000000002
1679064545989530318,0.029
1679064545997226358,0.018000000000000002
1679064546004922398,0.018000000000000002
1679064546012618438,-0.002
1679064546020314478,-0.05
1679064546028010518,-0.083
1679064546035706558,-0.098
1679064546043402598,-0.112
1679064546051098638,-0.129
1679064546058794678,-0.15
1679064546066490718,-0.154
1679064546074186758,-0.135
1679064546081882798,-0.131
1679064546089578838,-0.131
1679064546097274878,-0.14100000000000001
1679064546104970918,-0.20600000000000002
1679064546112666958,-0.275
1679064546120362998,-0.258
1679064546128059038,-0.221
1679064546135755078,-0.212
1679064546143451118,-0.215
1679064546151147158,-0.212
1679064546158843198,-0.196
1679064546166539238,-0.171
1679064546174235278,-0.166
1679064546181931318,-0.152
1679064546189627358,-0.116
1679064546197323398,-0.10200000000000001
1679064546205019438,-0.11
1679064546212715478,-0.121
1679064546220411518,-0.121
1679064546228107558,-0.106
1679064546235803598,-0.1
1679064546243499638,-0.098
1679064546251195706,-0.077
1679064546258891746,-0.06
1679064546266587786,-0.054
1679064546274283826,-0.031
1679064546281979866,-0.012
1679064546289675906,-0.054
1679064546297371946,-0.114
1679064546305067986,-0.1
1679064546312764026,-0.06
1679064546320460066,-0.06
1679064546328156106,-0.064
1679064546335852146,-0.043000000000000003
1679064546343548186,-0.016
1679064546351244226,0.006
1679064546358940266,0.043000000000000003
1679064546366636306,0.091
1679064546374332346,0.1
1679064546382028386,0.068
1679064546389724426,0.058
1679064546397420466,0.07
1679064546405116506,0.073
1679064546412812546,0.073
1679064546420508586,0.085
1679064546428204626,0.098
1679064546435900666,0.108
1679064546443596706,0.11
1679064546451292746,0.096
1679064546458988786,0.079
1679064546466684826,0.164
1679064546474380866,0.48
1679064546482076906,0.9390000000000001,,985
1679064546489772946,1.171
1679064546497468986,0.686
1679064546505165026,-0.248
1679064546512861066,-0.492
1679064546520557106,-0.018000000000000002
1679064546528253146,0.154
1679064546535949186,0.016
1679064546543645226,0.06
1679064546551341266,0.152
1679064546559037306,0.127
1679064546566733346,0.112
1679064546574429386,0.146
1679064546582125426,0.169
1679064546589821466,0.177
1679064546597517506,0.194
1679064546605213546,0.2
1679064546612909586,0.156
1679064546620605626,0.081
1679064546628301666,0.068
1679064546635997706,0.106
1679064546643693746,0.129
1679064546651389786,0.127
1679064546659085826,0.121
1679064546666781866,0.137
1679064546674477906,0.166
1679064546682173946,0.185
1679064546689869986,0.20400000000000001
1679064546697566026,0.219
1679064546705262066,0.192
1679064546712958106,0.162
1679064546720654146,0.185
1679064546728350186,0.219
1679064546736046226,0.225
1679064546743742266,0.233
1679064546751438306,0.242
1679064546759134346,0.244
1679064546766830386,0.252
1679064546774526426,0.256
1679064546782222466,0.248
1679064546789918506,0.229
1679064546797614546,0.185
1679064546805310586,0.123
1679064546813006654,0.089,62
1679064546820703112,0.089
1679064546828399570,0.081
1679064546836096028,0.035
1679064546843792486,-0.004
1679064546851488944,-0.014
1679064546859185402,-0.045
1679064546866881860,-0.1
1679064546874578318,-0.1
1679064546882274776,-0.073
1679064546889971234,-0.085
1679064546897667692,-0.10200000000000001
1679064546905364150,-0.079
1679064546913060608,-0.056
1679064546920757066,-0.045
1679064546928453524,-0.037
1679064546936149982,-0.037
1679064546943846440,-0.041
1679064546951542898,-0.056
1679064546959239356,-0.058
1679064546966935814,-0.033
1679064546974632272,-0.02
1679064546982328730,-0.043000000000000003
1679064546990025188,-0.054
1679064546997721646,-0.048
1679064547005418104,-0.064
1679064547013114562,-0.108
1679064547020811020,-0.152
1679064547028507478,-0.177
1679064547036203936,-0.181
1679064547043900394,-0.183
1679064547051596852,-0.183
1679064547059293310,-0.169
1679064547066989768,-0.162
1679064547074686226,-0.183
1679064547082382684,-0.187
1679064547090079142,-0.162
1679064547097775600,-0.146
1679064547105472058,-0.146
1679064547113168516,-0.156
1679064547120864974,-0.20400000000000001
1679064547128561432,-0.267
1679064547136257890,-0.267
1679064547143954348,-0.231
1679064547151650806,-0.219
1679064547159347264,-0.227
1679064547167043722,-0.227
1679064547174740180,-0.202
1679064547182436638,-0.162
1679064547190133096,-0.154
1679064547197829554,-0.17500000000000002
1679064547205526012,-0.17300000000000001
1679064547213222470,-0.158
1679064547220918928,-0.162
1679064547228615386,-0.154
1679064547236311844,-0.121
1679064547244008302,-0.098
1679064547251704760,-0.091
1679064547259401218,-0.08700000000000001
1679064547267097676,-0.07
1679064547274794134,-0.043000000000000003
1679064547282490592,-0.029
1679064547290187050,-0.014
1679064547297883508,0.012
1679064547305579966,0.022
1679064547313276424,0.02
1679064547320972882,0.041
1679064547328669340,0.081
1679064547336365798,0.133
1679064547344062256,0.164
1679064547351758714,0.14400000000000002
1679064547359455172,0.127
1679064547367151630,0.137
1679064547374848120,0.123
1679064547382544160,0.112
1679064547390240200,0.14100000000000001
1679064547397936240,0.11800000000000001
1679064547405632280,0.041
1679064547413328320,0.027
1679064547421024360,0.06
1679064547428720400,0.058
1679064547436416440,0.035
1679064547444112480,0.108
1679064547451808520,0.40700000000000003
1679064547459504560,0.874
1679064547467200600,1.116,,983
1679064547474896640,0.619
1679064547482592680,-0.331
1679064547490288720,-0.617
1679064547497984760,-0.183
1679064547505680800,0.05
1679064547513376840,0.002
1679064547521072880,0.031
1679064547528768920,0.081
1679064547536464960,0.07
1679064547544161000,0.081
1679064547551857040,0.112
1679064547559553080,0.123
1679064547567249120,0.146
1679064547574945160,0.171
1679064547582641200,0.169
1679064547590337240,0.17300000000000001
1679064547598033280,0.20800000000000002
1679064547605729320,0.23700000000000002
1679064547613425360,0.242
1679064547621121400,0.242
1679064547628817440,0.20800000000000002
1679064547636513480,0.148
1679064547644209520,0.14100000000000001
1679064547651905560,0.177
1679064547659601600,0.194
1679064547667297640,0.198
1679064547674993680,0.189
1679064547682689720,0.183
1679064547690385760,0.189
1679064547698081800,0.192
1679064547705777840,0.194
1679064547713473880,0.21
1679064547721169920,0.223
1679064547728865960,0.227
1679064547736562000,0.23500000000000001
1679064547744258040,0.254
1679064547751954080,0.263
1679064547759650120,0.23500000000000001
1679064547767346160,0.181
1679064547775042200,0.14100000000000001
1679064547782738240,0.123
1679064547790434280,0.098
1679064547798130320,0.07
1679064547805826360,0.066
1679064547813522400,0.06
1679064547821218440,0.025
1679064547828914480,-0.002
1679064547836610520,0.012
1679064547844306560,0.035
1679064547852002600,0.031
1679064547859698640,0.016
1679064547867394680,0.022
1679064547875090720,0.052000000000000005
1679064547882786760,0.062
1679064547890482800,0.064
1679064547898178840,0.081
1679064547905874880,0.085
1679064547913570920,0.073
1679064547921266960,0.081
1679064547928963000,0.091
1679064547936659070,0.06,62
1679064547944355110,0.018000000000000002
1679064547952051150,0.016
1679064547959747190,0.029
1679064547967443230,0.027
1679064547975139270,0.012
1679064547982835310,-0.006
1679064547990531350,-0.029
1679064547998227390,-0.089
1679064548005923430,-0.181
1679064548013619470,-0.217
1679064548021315510,-0.196
1679064548029011550,-0.20400000000000001
1679064548036707590,-0.231
1679064548044403630,-0.231
1679064548052099670,-0.219
1679064548059795710,-0.217
1679064548067491750,-0.217
1679064548075187790,-0.198
1679064548082883830,-0.179
1679064548090579870,-0.187
1679064548098275910,-0.192
1679064548105971950,-0.162
1679064548113667990,-0.133
1679064548121364030,-0.127
1679064548129060070,-0.131
1679064548136756110,-0.169
1679064548144452150,-0.233
1679064548152148190,-0.25
1679064548159844230,-0.229
1679064548167540270,-0.215
1679064548175236310,-0.215
1679064548182932350,-0.23500000000000001
1679064548190628390,-0.24
1679064548198324430,-0.20400000000000001
1679064548206020470,-0.177
1679064548213716510,-0.171
1679064548221412550,-0.156
1679064548229108590,-0.135
1679064548236804630,-0.125
1679064548244500670,-0.11
1679064548252196710,-0.085
1679064548259892750,-0.054
1679064548267588790,-0.035
1679064548275284830,-0.029
1679064548282980870,0.002
1679064548290676910,0.07
1679064548298372950,0.10200000000000001
1679064548306068990,0.077
1679064548313765030,0.07
1679064548321461070,0.079
1679064548329157110,0.058
1679064548336853150,0.041
1679064548344549190,0.073
1679064548352245230,0.10400000000000001
1679064548359941270,0.10200000000000001
1679064548367637310,0.08700000000000001
1679064548375333350,0.10200000000000001
1679064548383029390,0.125
1679064548390725430,0.156
1679064548398421470,0.325
1679064548406117510,0.734
1679064548413813550,1.196
1679064548421509590,1.235
1679064548429205630,0.46900000000000003
1679064548436901670,-0.417
1679064548444597710,-0.34800000000000003
1679064548452293750,0.137
1679064548459989790,0.133
1679064548467685830,0.022
1679064548475381870,0.123
1679064548483077910,0.154,,1015
1679064548490773950,0.116
1679064548498470018,0.16,62
1679064548506166058,0.187
1679064548513862098,0.164
1679064548521558138,0.181
1679064548529254178,0.221
1679064548536950218,0.23700000000000002
1679064548544646258,0.23700000000000002
1679064548552342298,0.23700000000000002
1679064548560038338,0.246
1679064548567734378,0.242
1679064548575430418,0.202
1679064548583126458,0.181
1679064548590822498,0.20600000000000002
1679064548598518538,0.21
1679064548606214578,0.196
1679064548613910618,0.219
1679064548621606658,0.258
1679064548629302698,0.273
1679064548636998738,0.277
1679064548644694778,0.254
1679064548652390818,0.198
1679064548660086858,0.164
1679064548667782898,0.16
1679064548675478938,0.135
1679064548683174978,0.11
1679064548690871018,0.098
1679064548698567058,0.083
1679064548706263098,0.079
1679064548713959138,0.077
1679064548721655178,0.041
1679064548729351218,-0.002
1679064548737047258,-0.029
1679064548744743298,-0.048
1679064548752439338,-0.06
1679064548760135378,-0.058
1679064548767831418,-0.039
1679064548775527458,-0.027
1679064548783223498,-0.033
1679064548790919538,-0.029
1679064548798615578,0.004
1679064548806311618,0.031
1679064548814007658,0.041
1679064548821703698,0.054
1679064548829399738,0.062
1679064548837095778,0.041
1679064548844791818,0.014
1679064548852487858,0.02
1679064548860183898,0.045
1679064548867879938,0.045
1679064548875575978,0.027
1679064548883272018,0.029
1679064548890968058,0.052000000000000005
1679064548898664098,0.058
1679064548906360138,0.05
1679064548914056178,0.041
1679064548921752218,0.004
1679064548929448258,-0.035
1679064548937144298,-0.035
1679064548944840338,-0.014
1679064548952536378,-0.002
1679064548960232418,-0.004
1679064548967928458,-0.016
1679064548975624498,-0.012
1679064548983320538,0.008
1679064548991016578,0.006
1679064548998712618,-0.025
1679064549006408658,-0.048
1679064549014104698,-0.077
1679064549021800738,-0.133
1679064549029496778,-0.154
1679064549037192818,-0.131
1679064549044888858,-0.123
1679064549052584898,-0.146
1679064549060280966,-0.158
1679064549067977006,-0.14400000000000002
1679064549075673046,-0.129
1679064549083369086,-0.129
1679064549091065126,-0.11800000000000001
1679064549098761166,-0.10400000000000001
1679064549106457206,-0.129
1679064549114153246,-0.187
1679064549121849286,-0.20600000000000002
1679064549129545326,-0.177
1679064549137241366,-0.166
1679064549144937406,-0.202
1679064549152633446,-0.269
1679064549160329486,-0.325
1679064549168025526,-0.356
1679064549175721566,-0.367
1679064549183417606,-0.34400000000000003
1679064549191113646,-0.315
1679064549198809686,-0.317
1679064549206505726,-0.319
1679064549214201766,-0.281
1679064549221897806,-0.24
1679064549229593846,-0.225
1679064549237289886,-0.217
1679064549244985926,-0.198
1679064549252681966,-0.17500000000000002
1679064549260378006,-0.158
1679064549268074046,-0.137
1679064549275770086,-0.10400000000000001
1679064549283466126,-0.07
1679064549291162166,-0.056
1679064549298858206,-0.022
1679064549306554246,0.031
1679064549314250286,0.045
1679064549321946326,0.029
1679064549329642366,0.027
1679064549337338406,0.027
1679064549345034446,0.014
1679064549352730486,0.018000000000000002
1679064549360426526,0.043000000000000003
1679064549368122566,0.073
1679064549375818606,0.08700000000000001
1679064549383514646,0.081
1679064549391210686,0.075
1679064549398906726,0.106
1679064549406602766,0.227
1679064549414298806,0.519
1679064549421994846,0.9560000000000001
1679064549429690886,1.2
1679064549437386926,0.72
1679064549445082966,-0.242
1679064549452779006,-0.5
1679064549460475046,-0.006
1679064549468171086,0.179
1679064549475867126,0.027
1679064549483563166,0.058
1679064549491259206,0.15
1679064549498955246,0.129,,1018
1679064549506651286,0.127
1679064549514347326,0.171
1679064549522043366,0.179
1679064549529739406,0.17500000000000002
1679064549537435446,0.192
1679064549545131486,0.215
1679064549552827526,0.23700000000000002
1679064549560523566,0.25
1679064549568219606,0.246
1679064549575915646,0.254
1679064549583611686,0.28500000000000003
1679064549591307726,0.296
1679064549599003766,0.298
1679064549606699806,0.323
1679064549614395846,0.34
1679064549622091914,0.333,62
1679064549629788372,0.342
1679064549637484830,0.373
1679064549645181288,0.402
1679064549652877746,0.402
1679064549660574204,0.34800000000000003
1679064549668270662,0.304
1679064549675967120,0.306
1679064549683663578,0.263
1679064549691360036,0.202
1679064549699056494,0.20600000000000002
1679064549706752952,0.20800000000000002
1679064549714449410,0.166
1679064549722145868,0.15
1679064549729842326,0.148
1679064549737538784,0.116
1679064549745235242,0.066
1679064549752931700,0.033
1679064549760628158,0.022
1679064549768324616,0.018000000000000002
1679064549776021074,0.014
1679064549783717532,0.025
1679064549791413990,0.043000000000000003
1679064549799110448,0.043000000000000003
1679064549806806906,0.037
1679064549814503364,0.058
1679064549822199822,0.089
1679064549829896280,0.10400000000000001
1679064549837592738,0.106
1679064549845289196,0.10400000000000001
1679064549852985654,0.093
1679064549860682112,0.066
1679064549868378570,0.054
1679064549876075028,0.073
1679064549883771486,0.081
1679064549891467944,0.06
1679064549899164402,0.031
1679064549906860860,0.004
1679064549914557318,-0.012
1679064549922253776,-0.018000000000000002
1679064549929950234,-0.02
1679064549937646692,-0.022
1679064549945343150,-0.022
1679064549953039608,-0.022
1679064549960736066,-0.016
1679064549968432524,0.004
1679064549976128982,0.018000000000000002
1679064549983825440,0.006
1679064549991521898,0.004
1679064549999218356,0.029
1679064550006914814,0.037
1679064550014611272,0.002
1679064550022307730,-0.035
1679064550030004188,-0.058
1679064550037700646,-0.093
1679064550045397104,-0.125
1679064550053093562,-0.125
1679064550060790020,-0.112
1679064550068486478,-0.121
1679064550076182936,-0.14400000000000002
1679064550083879394,-0.14400000000000002
1679064550091575852,-0.123
1679064550099272310,-0.116
1679064550106968768,-0.116
1679064550114665226,-0.106
1679064550122361684,-0.10400000000000001
1679064550130058142,-0.106
1679064550137754600,-0.098
1679064550145451058,-0.093
1679064550153147516,-0.121
1679064550160843974,-0.177
1679064550168540432,-0.242
1679064550176236890,-0.256
1679064550183933380,-0.231
1679064550191629002,-0.225
1679064550199324624,-0.219
1679064550207020246,-0.196
1679064550214715868,-0.202
1679064550222411490,-0.25
1679064550230107112,-0.275
1679064550237802734,-0.252
1679064550245498356,-0.231
1679064550253193978,-0.233
1679064550260889600,-0.229
1679064550268585222,-0.202
1679064550276280844,-0.17300000000000001
1679064550283976466,-0.154
1679064550291672088,-0.133
1679064550299367710,-0.10200000000000001
1679064550307063332,-0.081
1679064550314758954,-0.045
1679064550322454576,0.0
1679064550330150198,0.012
1679064550337845820,0.0
1679064550345541442,-0.014
1679064550353237064,-0.031
1679064550360932686,-0.033
1679064550368628308,-0.014
1679064550376323930,0.006
1679064550384019552,0.025
1679064550391715174,0.025
1679064550399410796,-0.016
1679064550407106418,-0.058
1679064550414802040,-0.016
1679064550422497662,0.154
1679064550430193284,0.511
1679064550437888906,0.96
1679064550445584528,1.083
1679064550453280150,0.44
1679064550460975772,-0.446
1679064550468671394,-0.503
1679064550476367016,-0.02,,978
1679064550484062638,0.089
1679064550491758260,-0.016
1679064550499453882,0.029
1679064550507149504,0.093
1679064550514845126,0.093
1679064550522540748,0.112
1679064550530236370,0.131
1679064550537931992,0.125
1679064550545627614,0.135
1679064550553323236,0.16
1679064550561018858,0.177
1679064550568714480,0.2
1679064550576410102,0.219
1679064550584105724,0.215
1679064550591801346,0.217
1679064550599496968,0.25
1679064550607192590,0.277
1679064550614888212,0.279
1679064550622583834,0.28300000000000003
1679064550630279456,0.304
1679064550637975078,0.313
1679064550645670700,0.294
1679064550653366322,0.28300000000000003
1679064550661061944,0.317
1679064550668757566,0.329
1679064550676453188,0.265
1679064550684148810,0.219
1679064550691844432,0.254
1679064550699540054,0.279
1679064550707235676,0.271
1679064550714931298,0.273
1679064550722626920,0.271
1679064550730322542,0.242
1679064550738018164,0.223
1679064550745713810,0.21,61
1679064550753410268,0.185
1679064550761106726,0.14100000000000001
1679064550768803184,0.091
1679064550776499642,0.06
1679064550784196100,0.041
1679064550791892558,-0.004
1679064550799589016,-0.048
1679064550807285474,-0.039
1679064550814981932,-0.029
1679064550822678390,-0.054
1679064550830374848,-0.081
1679064550838071306,-0.083
1679064550845767764,-0.068
1679064550853464222,-0.075
1679064550861160680,-0.085
1679064550868857138,-0.064
1679064550876553596,-0.033
1679064550884250054,-0.035
1679064550891946512,-0.06
1679064550899642970,-0.077
1679064550907339428,-0.085
1679064550915035886,-0.089
1679064550922732344,-0.07
1679064550930428802,-0.045
1679064550938125260,-0.043000000000000003
1679064550945821718,-0.052000000000000005
1679064550953518176,-0.041
1679064550961214634,-0.025
1679064550968911092,-0.022
1679064550976607550,-0.016
1679064550984304008,-0.006
1679064550992000466,-0.033
1679064550999696924,-0.08700000000000001
1679064551007393382,-0.11800000000000001
1679064551015089840,-0.137
1679064551022786298,-0.146
1679064551030482756,-0.152
1679064551038179214,-0.17500000000000002
1679064551045875672,-0.183
1679064551053572130,-0.162
1679064551061268588,-0.152
1679064551068965046,-0.162
1679064551076661504,-0.148
1679064551084357962,-0.135
1679064551092054420,-0.154
1679064551099750878,-0.152
1679064551107447336,-0.116
1679064551115143794,-0.096
1679064551122840252,-0.106
1679064551130536710,-0.11800000000000001
1679064551138233168,-0.14400000000000002
1679064551145929626,-0.164
1679064551153626084,-0.154
1679064551161322542,-0.137
1679064551169019000,-0.15
1679064551176715458,-0.20800000000000002
1679064551184411916,-0.263
1679064551192108374,-0.246
1679064551199804832,-0.185
1679064551207501290,-0.14100000000000001
1679064551215197748,-0.133
1679064551222894206,-0.146
1679064551230590664,-0.148
1679064551238287122,-0.154
1679064551245983580,-0.16
1679064551253680038,-0.14400000000000002
1679064551261376496,-0.116
1679064551269072954,-0.11
1679064551276769412,-0.116
1679064551284465870,-0.091
1679064551292162328,-0.058
1679064551299858786,-0.048
1679064551307555278,0.008
1679064551315251039,0.258
1679064551322946800,0.711
1679064551330642561,1.125
1679064551338338322,0.972
1679064551346034083,0.077
1679064551353729844,-0.601
1679064551361425605,-0.354
1679064551369121366,0.022
1679064551376817127,-0.004
1679064551384512888,-0.066
1679064551392208649,-0.07
1679064551399904410,-0.114
1679064551407600171,-0.11
1679064551415295932,-0.091
1679064551422991693,-0.139
1679064551430687454,-0.162,,952
1679064551438383215,-0.114
1679064551446078976,-0.096
1679064551453774737,-0.11800000000000001
1679064551461470498,-0.098
1679064551469166259,-0.05
1679064551476862020,-0.029
1679064551484557781,-0.016
1679064551492253542,0.022
1679064551499949303,0.06
1679064551507645064,0.068
1679064551515340825,0.079
1679064551523036586,0.11800000000000001
1679064551530732347,0.164
1679064551538428108,0.183
1679064551546123869,0.192
1679064551553819630,0.215
1679064551561515391,0.246
1679064551569211152,0.263
1679064551576906913,0.279
1679064551584602674,0.311
1679064551592298435,0.333
1679064551599994196,0.325
1679064551607689957,0.311
1679064551615385718,0.321
1679064551623081479,0.308
1679064551630777240,0.233
1679064551638473001,0.15
1679064551646168762,0.098
1679064551653864523,0.06
1679064551661560284,0.029
1679064551669256045,0.008
1679064551676951806,-0.029
1679064551684647567,-0.096
1679064551692343328,-0.137
1679064551700039089,-0.129
1679064551707734850,-0.10200000000000001
1679064551715430611,-0.077
1679064551723126372,-0.068
1679064551730822133,-0.058
1679064551738517894,-0.037
1679064551746213655,-0.025
1679064551753909416,-0.01
1679064551761605177,0.016
1679064551769300938,0.048
1679064551776996699,0.052000000000000005
1679064551784692460,0.022
1679064551792388221,0.004
1679064551800083982,0.029
1679064551807779743,0.045
1679064551815475504,0.039
1679064551823171265,0.045
1679064551830867026,0.052000000000000005
1679064551838562787,0.037
1679064551846258548,0.029
1679064551853954309,0.05
1679064551861650070,0.073
1679064551869345880,0.073,61
1679064551877042199,0.037
1679064551884738518,0.012
1679064551892434837,0.029
1679064551900131156,0.041
1679064551907827475,0.033
1679064551915523794,0.043000000000000003
1679064551923220113,0.045
1679064551930916432,0.0
1679064551938612751,-0.06
1679064551946309070,-0.083
1679064551954005389,-0.08700000000000001
1679064551961701708,-0.129
1679064551969398027,-0.185
1679064551977094346,-0.194
1679064551984790665,-0.171
1679064551992486984,-0.171
1679064552000183303,-0.171
1679064552007879622,-0.154
1679064552015575941,-0.16
1679064552023272260,-0.179
1679064552030968579,-0.166
1679064552038664898,-0.125
1679064552046361217,-0.08700000000000001
1679064552054057536,-0.077
1679064552061753855,-0.068
1679064552069450174,-0.054
1679064552077146493,-0.068
1679064552084842812,-0.10400000000000001
1679064552092539131,-0.098
1679064552100235450,-0.066
1679064552107931769,-0.06
1679064552115628088,-0.068
1679064552123324407,-0.077
1679064552131020726,-0.079
1679064552138717045,-0.07
1679064552146413364,-0.066
1679064552154109683,0.018000000000000002
1679064552161806002,0.338
1679064552169502321,0.8280000000000001
1679064552177198640,1.127
1679064552184894959,0.674
1679064552192591278,-0.402
1679064552200287597,-0.843
1679064552207983916,-0.359
1679064552215680235,-0.077
1679064552223376554,-0.202
1679064552231072873,-0.181
1679064552238769192,-0.091
1679064552246465511,-0.11
1679064552254161830,-0.10200000000000001
1679064552261858149,-0.05
1679064552269554468,-0.035
1679064552277250787,-0.012
1679064552284947106,0.022
1679064552292643425,0.025
1679064552300339744,0.029
1679064552308036063,0.07
1679064552315732382,0.10400000000000001
1679064552323428701,0.116
1679064552331125020,0.133
1679064552338821339,0.156
1679064552346517658,0.171
1679064552354213977,0.185
1679064552361910296,0.198
1679064552369606615,0.187
1679064552377302934,0.169
1679064552384999253,0.166
1679064552392695572,0.185
1679064552400391891,0.215
1679064552408088210,0.244
1679064552415784529,0.263
1679064552423480848,0.279
1679064552431177174,0.296,61
1679064552438873214,0.298,,1011
1679064552446569254,0.3
1679064552454265294,0.313
1679064552461961334,0.321
1679064552469657374,0.28800000000000003
1679064552477353414,0.219
1679064552485049454,0.171
1679064552492745494,0.148
1679064552500441534,0.089
1679064552508137574,0.014
1679064552515833614,-0.002
1679064552523529654,0.002
1679064552531225694,-0.05
1679064552538921734,-0.1
1679064552546617774,-0.079
1679064552554313814,-0.056
1679064552562009854,-0.10200000000000001
1679064552569705894,-0.158
1679064552577401934,-0.139
1679064552585097974,-0.1
1679064552592794014,-0.098
1679064552600490054,-0.08700000000000001
1679064552608186094,-0.07
1679064552615882134,-0.10400000000000001
1679064552623578174,-0.137
1679064552631274214,-0.112
1679064552638970254,-0.075
1679064552646666294,-0.06
1679064552654362334,-0.056
1679064552662058374,-0.054
1679064552669754414,-0.041
1679064552677450454,-0.02
1679064552685146494,-0.035
1679064552692842534,-0.093
1679064552700538574,-0.131
1679064552708234614,-0.133
1679064552715930654,-0.133
1679064552723626694,-0.123
1679064552731322734,-0.089
1679064552739018774,-0.07
1679064552746714814,-0.068
1679064552754410854,-0.058
1679064552762106894,-0.035
1679064552769802934,-0.02
1679064552777498974,-0.012
1679064552785195014,0.006
1679064552792891054,0.008
1679064552800587094,-0.033
1679064552808283134,-0.056
1679064552815979174,-0.027
1679064552823675214,-0.002
1679064552831371254,-0.004
1679064552839067294,-0.004
1679064552846763334,0.002
1679064552854459374,0.0
1679064552862155414,-0.018000000000000002
1679064552869851454,-0.025
1679064552877547494,-0.004
1679064552885243534,0.012
1679064552892939574,0.002
1679064552900635614,0.002
1679064552908331654,0.033
1679064552916027694,0.05
1679064552923723734,0.052000000000000005
1679064552931419774,0.064
1679064552939115814,0.077
1679064552946811854,0.073
1679064552954507894,0.05
1679064552962203934,0.029
1679064552969899974,0.022
1679064552977596014,0.002
1679064552985292054,-0.025
1679064552992988122,-0.014
1679064553000684580,0.018000000000000002
1679064553008381038,0.02
1679064553016077496,-0.018000000000000002
1679064553023773954,-0.056
1679064553031470412,-0.075
1679064553039166870,-0.121
1679064553046863328,-0.194
1679064553054559786,-0.20800000000000002
1679064553062256244,-0.17500000000000002
1679064553069952702,-0.17500000000000002
1679064553077649160,-0.198
1679064553085345618,-0.185
1679064553093042076,-0.091
1679064553100738534,0.177
1679064553108434992,0.615
1679064553116131450,0.97
1679064553123827908,0.715
1679064553131524366,-0.242
1679064553139220824,-0.801
1679064553146917282,-0.388
1679064553154613740,-0.027
1679064553162310198,-0.156
1679064553170006656,-0.192
1679064553177703114,-0.075
1679064553185399572,-0.058
1679064553193096030,-0.077
1679064553200792488,-0.089
1679064553208488946,-0.11800000000000001
1679064553216185404,-0.121
1679064553223881862,-0.10200000000000001
1679064553231578320,-0.085
1679064553239274778,-0.05
1679064553246971236,-0.016
1679064553254667694,-0.004
1679064553262364152,0.006
1679064553270060610,0.033
1679064553277757068,0.064
1679064553285453526,0.085
1679064553293149984,0.114
1679064553300846442,0.146
1679064553308542900,0.156
1679064553316239358,0.162
1679064553323935816,0.194
1679064553331632274,0.23700000000000002
1679064553339328732,0.263
1679064553347025190,0.258
1679064553354721648,0.231
1679064553362418106,0.221
1679064553370114564,0.23700000000000002
1679064553377811022,0.248
1679064553385507480,0.26
1679064553393203938,0.279
1679064553400900396,0.263
1679064553408596854,0.221
1679064553416293312,0.202
1679064553423989770,0.189
1679064553431686228,0.154
1679064553439382686,0.11800000000000001
1679064553447079144,0.10400000000000001
1679064553454775602,0.1,,1015
1679064553462472060,0.096
1679064553470168518,0.10400000000000001
1679064553477864976,0.127
1679064553485561434,0.14400000000000002
1679064553493257892,0.14100000000000001
1679064553500954350,0.148
1679064553508650808,0.177
1679064553516347266,0.198
1679064553524043724,0.202
1679064553531740182,0.212
1679064553539436640,0.225
1679064553547133098,0.229
1679064553554829588,0.233,61
1679064553562525628,0.246
1679064553570221668,0.273
1679064553577917708,0.28300000000000003
1679064553585613748,0.258
1679064553593309788,0.231
1679064553601005828,0.21
1679064553608701868,0.162
1679064553616397908,0.10400000000000001
1679064553624093948,0.077
1679064553631789988,0.068
1679064553639486028,0.029
1679064553647182068,-0.025
1679064553654878108,-0.027
1679064553662574148,-0.006
1679064553670270188,-0.045
1679064553677966228,-0.114
1679064553685662268,-0.121
1679064553693358308,-0.106
1679064553701054348,-0.154
1679064553708750388,-0.194
1679064553716446428,-0.169
1679064553724142468,-0.154
1679064553731838508,-0.17300000000000001
1679064553739534548,-0.164
1679064553747230588,-0.127
1679064553754926628,-0.1
1679064553762622668,-0.091
1679064553770318708,-0.089
1679064553778014748,-0.068
1679064553785710788,-0.041
1679064553793406828,-0.027
1679064553801102868,-0.018000000000000002
1679064553808798908,-0.029
1679064553816494948,-0.064
1679064553824190988,-0.079
1679064553831887028,-0.06
1679064553839583068,-0.058
1679064553847279108,-0.093
1679064553854975148,-0.125
1679064553862671188,-0.123
1679064553870367228,-0.10200000000000001
1679064553878063268,-0.091
1679064553885759308,-0.091
1679064553893455348,-0.075
1679064553901151388,-0.045
1679064553908847428,-0.05
1679064553916543468,-0.062
1679064553924239508,-0.039
1679064553931935548,0.002
1679064553939631588,0.018000000000000002
1679064553947327628,0.012
1679064553955023668,0.016
1679064553962719708,0.025
1679064553970415748,0.01
1679064553978111788,-0.012
1679064553985807828,-0.01
1679064553993503868,-0.012
1679064554001199908,-0.043000000000000003
1679064554008895948,-0.056
1679064554016591988,-0.029
1679064554024288028,-0.027
1679064554031984068,-0.075
1679064554039680108,-0.108
1679064554047376148,-0.098
1679064554055072188,-0.083
1679064554062768228,-0.08700000000000001
1679064554070464268,-0.08700000000000001
1679064554078160308,-0.068
1679064554085856348,-0.06
1679064554093552388,-0.098
1679064554101248428,-0.093
1679064554108944468,0.10400000000000001
1679064554116640536,0.53
1679064554124336576,0.987
1679064554132032616,1.012
1679064554139728656,0.231
1679064554147424696,-0.653
1679064554155120736,-0.622
1679064554162816776,-0.158
1679064554170512816,-0.10400000000000001
1679064554178208856,-0.194
1679064554185904896,-0.14100000000000001
1679064554193600936,-0.116
1679064554201296976,-0.177
1679064554208993016,-0.225
1679064554216689056,-0.21
1679064554224385096,-0.181
1679064554232081136,-0.17500000000000002
1679064554239777176,-0.162
1679064554247473216,-0.125
1679064554255169256,-0.091
1679064554262865296,-0.066
1679064554270561336,-0.048
1679064554278257376,-0.039
1679064554285953416,-0.012
1679064554293649456,0.035
1679064554301345496,0.06
1679064554309041536,0.068
1679064554316737576,0.1
1679064554324433616,0.131
1679064554332129656,0.137
1679064554339825696,0.139
1679064554347521736,0.148,,890
1679064554355217776,0.171
1679064554362913816,0.196
1679064554370609856,0.20400000000000001
1679064554378305896,0.223
1679064554386001936,0.252
1679064554393697976,0.267
1679064554401394016,0.273
1679064554409090056,0.28300000000000003
1679064554416786096,0.275
1679064554424482136,0.23500000000000001
1679064554432178176,0.2
1679064554439874216,0.185
1679064554447570256,0.156
1679064554455266296,0.116
1679064554462962336,0.093
1679064554470658376,0.093
1679064554478354416,0.10400000000000001
1679064554486050456,0.11
1679064554493746496,0.121
1679064554501442536,0.137
1679064554509138576,0.137
1679064554516834616,0.135
1679064554524530656,0.16
1679064554532226696,0.192
1679064554539922736,0.20400000000000001
1679064554547618776,0.20600000000000002
1679064554555314816,0.215
1679064554563010856,0.229
1679064554570706896,0.24
1679064554578402936,0.231
1679064554586098976,0.21
1679064554593795016,0.185
1679064554601491056,0.164
1679064554609187096,0.158
1679064554616883136,0.17300000000000001
1679064554624579176,0.194
1679064554632275216,0.192
1679064554639971256,0.185
1679064554647667296,0.194
1679064554655363336,0.198
1679064554663059376,0.189
1679064554670755416,0.196
1679064554678451486,0.225,61
1679064554686147944,0.233
1679064554693844402,0.192
1679064554701540860,0.131
1679064554709237318,0.073
1679064554716933776,0.012
1679064554724630234,-0.014
1679064554732326692,-0.004
1679064554740023150,-0.004
1679064554747719608,-0.041
1679064554755416066,-0.08700000000000001
1679064554763112524,-0.10400000000000001
1679064554770808982,-0.08700000000000001
1679064554778505440,-0.108
1679064554786201898,-0.177
1679064554793898356,-0.194
1679064554801594814,-0.154
1679064554809291272,-0.148
1679064554816987730,-0.16
1679064554824684188,-0.158
1679064554832380646,-0.192
1679064554840077104,-0.225
1679064554847773562,-0.21
1679064554855470020,-0.196
1679064554863166478,-0.212
1679064554870862936,-0.23500000000000001
1679064554878559394,-0.265
1679064554886255852,-0.28500000000000003
1679064554893952310,-0.258
1679064554901648768,-0.219
1679064554909345226,-0.20400000000000001
1679064554917041684,-0.183
1679064554924738142,-0.177
1679064554932434600,-0.215
1679064554940131058,-0.242
1679064554947827516,-0.212
1679064554955523974,-0.181
1679064554963220432,-0.187
1679064554970916890,-0.187
1679064554978613348,-0.16
1679064554986309806,-0.14100000000000001
1679064554994006264,-0.139
1679064555001702722,-0.112
1679064555009399180,0.0
1679064555017095638,0.298
1679064555024792096,0.757
1679064555032488554,1.066
1679064555040185012,0.661
1679064555047881470,-0.34
1679064555055577928,-0.726
1679064555063274386,-0.248
1679064555070970844,0.006
1679064555078667302,-0.146
1679064555086363760,-0.162
1679064555094060218,-0.066
1679064555101756676,-0.068
1679064555109453134,-0.08700000000000001
1679064555117149592,-0.058
1679064555124846050,-0.022
1679064555132542508,0.006
1679064555140238966,0.027
1679064555147935424,0.039
1679064555155631882,0.056
1679064555163328340,0.081
1679064555171024798,0.1
1679064555178721256,0.11800000000000001
1679064555186417714,0.15
1679064555194114172,0.177,,845
1679064555201810630,0.171
1679064555209507088,0.125
1679064555217203546,0.083
1679064555224900004,0.08700000000000001
1679064555232596462,0.11
1679064555240292952,0.123
1679064555247988992,0.14100000000000001
1679064555255685032,0.169
1679064555263381072,0.189
1679064555271077112,0.215
1679064555278773152,0.252
1679064555286469192,0.275
1679064555294165232,0.265
1679064555301861272,0.265
1679064555309557312,0.28300000000000003
1679064555317253352,0.275
1679064555324949392,0.217
1679064555332645432,0.158
1679064555340341472,0.112
1679064555348037512,0.045
1679064555355733552,-0.039
1679064555363429592,-0.07
1679064555371125632,-0.05
1679064555378821672,-0.05
1679064555386517712,-0.075
1679064555394213752,-0.062
1679064555401909792,-0.027
1679064555409605832,-0.012
1679064555417301872,-0.004
1679064555424997912,0.018000000000000002
1679064555432693952,0.039
1679064555440389992,0.043000000000000003
1679064555448086032,0.06
1679064555455782072,0.089
1679064555463478112,0.11800000000000001
1679064555471174152,0.129
1679064555478870192,0.125
1679064555486566232,0.135
1679064555494262272,0.162
1679064555501958312,0.17300000000000001
1679064555509654352,0.177
1679064555517350392,0.196
1679064555525046432,0.202
1679064555532742472,0.185
1679064555540438512,0.169
1679064555548134552,0.156
1679064555555830592,0.15
1679064555563526632,0.139
1679064555571222672,0.1
1679064555578918712,0.066
1679064555586614752,0.07
1679064555594310792,0.075
1679064555602006832,0.073
1679064555609702872,0.085
1679064555617398912,0.083
1679064555625094952,0.068
1679064555632790992,0.081
1679064555640487032,0.108
1679064555648183072,0.114
1679064555655879112,0.106
1679064555663575152,0.106
1679064555671271192,0.114
1679064555678967232,0.123
1679064555686663272,0.129
1679064555694359312,0.137
1679064555702055352,0.131
1679064555709751392,0.083
1679064555717447432,0.01
1679064555725143472,-0.066
1679064555732839512,-0.114
1679064555740535552,-0.11800000000000001
1679064555748231592,-0.131
1679064555755927632,-0.148
1679064555763623672,-0.14100000000000001
1679064555771319712,-0.133
1679064555779015752,-0.135
1679064555786711792,-0.11800000000000001
1679064555794407832,-0.10200000000000001
1679064555802103900,-0.114,62
1679064555809799940,-0.139
1679064555817495980,-0.158
1679064555825192020,-0.164
1679064555832888060,-0.162
1679064555840584100,-0.156
1679064555848280140,-0.15
1679064555855976180,-0.16
1679064555863672220,-0.192
1679064555871368260,-0.192
1679064555879064300,-0.14400000000000002
1679064555886760340,-0.116
1679064555894456380,-0.129
1679064555902152420,-0.146
1679064555909848460,-0.148
1679064555917544500,-0.139
1679064555925240540,-0.127
1679064555932936580,-0.11
1679064555940632620,-0.098
1679064555948328660,-0.08700000000000001
1679064555956024700,-0.073
1679064555963720740,-0.05
1679064555971416780,-0.025
1679064555979112820,0.045
1679064555986808860,0.298
1679064555994504900,0.761
1679064556002200940,1.164
1679064556009896980,0.937
1679064556017593020,-0.022
1679064556025289060,-0.603
1679064556032985100,-0.219
1679064556040681140,0.11800000000000001
1679064556048377180,-0.012
1679064556056073220,-0.043000000000000003
1679064556063769260,0.031
1679064556071465300,-0.02
1679064556079161340,-0.056
1679064556086857380,-0.004
1679064556094553420,0.025
1679064556102249460,0.025
1679064556109945500,0.05
1679064556117641540,0.081
1679064556125337580,0.089
1679064556133033620,0.089,,940
1679064556140729660,0.11
1679064556148425700,0.14400000000000002
1679064556156121740,0.171
1679064556163817780,0.179
1679064556171513820,0.183
1679064556179209860,0.20600000000000002
1679064556186905900,0.23500000000000001
1679064556194601940,0.25
1679064556202297980,0.269
1679064556209994020,0.3
1679064556217690060,0.317
1679064556225386100,0.29
1679064556233082140,0.246
1679064556240778180,0.248
1679064556248474220,0.279
1679064556256170260,0.279
1679064556263866300,0.273
1679064556271562340,0.28800000000000003
1679064556279258380,0.3
1679064556286954420,0.28500000000000003
1679064556294650460,0.271
1679064556302346500,0.23500000000000001
1679064556310042540,0.139
1679064556317738580,0.05
1679064556325434620,0.031
1679064556333130660,0.033
1679064556340826700,0.016
1679064556348522740,0.008
1679064556356218780,0.012
1679064556363914848,0.02
1679064556371610888,0.031
1679064556379306928,0.043000000000000003
1679064556387002968,0.068
1679064556394699008,0.079
1679064556402395048,0.027
1679064556410091088,-0.022
1679064556417787128,0.004
1679064556425483168,0.039
1679064556433179208,0.035
1679064556440875248,0.035
1679064556448571288,0.054
1679064556456267328,0.062
1679064556463963368,0.066
1679064556471659408,0.083
1679064556479355448,0.093
1679064556487051488,0.068
1679064556494747528,0.027
1679064556502443568,0.022
1679064556510139608,0.043000000000000003
1679064556517835648,0.045
1679064556525531688,0.037
1679064556533227728,0.039
1679064556540923768,0.043000000000000003
1679064556548619808,0.033
1679064556556315848,0.008
1679064556564011888,0.0
1679064556571707928,0.016
1679064556579403968,0.02
1679064556587100008,0.0
1679064556594796048,0.004
1679064556602492088,0.031
1679064556610188128,0.041
1679064556617884168,0.043000000000000003
1679064556625580208,0.056
1679064556633276248,0.062
1679064556640972288,0.037
1679064556648668328,0.004
1679064556656364368,-0.006
1679064556664060408,-0.016
1679064556671756448,-0.06
1679064556679452488,-0.096
1679064556687148528,-0.089
1679064556694844568,-0.079
1679064556702540608,-0.083
1679064556710236648,-0.083
1679064556717932688,-0.066
1679064556725628728,-0.07
1679064556733324768,-0.11800000000000001
1679064556741020808,-0.17300000000000001
1679064556748716848,-0.181
1679064556756412888,-0.156
1679064556764108928,-0.14400000000000002
1679064556771804968,-0.131
1679064556779501008,-0.10200000000000001
1679064556787197048,-0.064
1679064556794893088,-0.06
1679064556802589128,-0.112
1679064556810285168,-0.158
1679064556817981208,-0.164
1679064556825677248,-0.16
1679064556833373288,-0.148
1679064556841069328,-0.116
1679064556848765368,-0.10200000000000001
1679064556856461408,-0.108
1679064556864157448,-0.10400000000000001
1679064556871853488,-0.07
1679064556879549528,0.079
1679064556887245568,0.46900000000000003
1679064556894941608,0.97
1679064556902637648,1.12
1679064556910333688,0.448
1679064556918029728,-0.498
1679064556925725796,-0.555,63
1679064556933421836,-0.035
1679064556941117876,0.062
1679064556948813916,-0.058
1679064556956509956,0.0
1679064556964205996,0.043000000000000003
1679064556971902036,-0.016
1679064556979598076,-0.05
1679064556987294116,-0.022
1679064556994990156,0.0
1679064557002686196,-0.002
1679064557010382236,-0.006
1679064557018078276,0.01
1679064557025774316,0.031
1679064557033470356,0.043000000000000003
1679064557041166396,0.041
1679064557048862436,0.018000000000000002
1679064557056558476,0.002
1679064557064254516,0.016
1679064557071950556,0.039
1679064557079646596,0.062
1679064557087342636,0.08700000000000001
1679064557095038676,0.098
1679064557102734716,0.10200000000000001
1679064557110430756,0.131
1679064557118126796,0.166
1679064557125822836,0.189
1679064557133518876,0.215
1679064557141214916,0.23700000000000002,,1011
1679064557148910956,0.248
1679064557156606996,0.263
1679064557164303036,0.292
1679064557171999076,0.304
1679064557179695116,0.3
1679064557187391156,0.28500000000000003
1679064557195087196,0.25
1679064557202783236,0.20400000000000001
1679064557210479276,0.164
1679064557218175316,0.139
1679064557225871356,0.114
1679064557233567396,0.039
1679064557241263436,-0.068
1679064557248959476,-0.10200000000000001
1679064557256655516,-0.06
1679064557264351556,-0.039
1679064557272047596,-0.064
1679064557279743636,-0.079
1679064557287439676,-0.079
1679064557295135716,-0.106
1679064557302831756,-0.127
1679064557310527796,-0.10200000000000001
1679064557318223836,-0.077
1679064557325919876,-0.077
1679064557333615916,-0.075
1679064557341311956,-0.048
1679064557349007996,-0.008
1679064557356704036,0.01
1679064557364400076,0.008
1679064557372096116,0.01
1679064557379792156,0.018000000000000002
1679064557387488196,0.035
1679064557395184236,0.052000000000000005
1679064557402880276,0.066
1679064557410576316,0.089
1679064557418272356,0.10200000000000001
1679064557425968396,0.089
1679064557433664436,0.091
1679064557441360476,0.125
1679064557449056516,0.137
1679064557456752556,0.121
1679064557464448596,0.116
1679064557472144636,0.131
1679064557479840676,0.14400000000000002
1679064557487536744,0.137,63
1679064557495232784,0.121
1679064557502928824,0.089
1679064557510624864,0.031
1679064557518320904,-0.031
1679064557526016944,-0.033
1679064557533712984,-0.02
1679064557541409024,-0.054
1679064557549105064,-0.077
1679064557556801104,-0.056
1679064557564497144,-0.027
1679064557572193184,-0.025
1679064557579889224,-0.012
1679064557587585264,0.027
1679064557595281304,0.035
1679064557602977344,0.027
1679064557610673384,0.066
1679064557618369424,0.148
1679064557626065464,0.196
1679064557633761504,0.166
1679064557641457544,0.116
1679064557649153584,0.064
1679064557656849624,0.035
1679064557664545664,0.01
1679064557672241704,-0.037
1679064557679937744,0.187
1679064557687633784,0.741
1679064557695329824,1.097
1679064557703025864,0.8200000000000001
1679064557710721904,-0.07
1679064557718417944,-0.766
1679064557726113984,-0.5710000000000001
1679064557733810024,-0.148
1679064557741506064,-0.162
1679064557749202104,-0.254
1679064557756898144,-0.17300000000000001
1679064557764594184,-0.125
1679064557772290224,-0.108
1679064557779986264,-0.056
1679064557787682304,-0.121
1679064557795378344,-0.281
1679064557803074384,-0.313
1679064557810770424,-0.248
1679064557818466464,-0.23700000000000002
1679064557826162504,-0.231
1679064557833858544,-0.196
1679064557841554584,-0.185
1679064557849250624,-0.162
1679064557856946664,-0.108
1679064557864642704,-0.077
1679064557872338744,-0.068
1679064557880034784,-0.043000000000000003
1679064557887730824,-0.008
1679064557895426864,0.025
1679064557903122904,0.056
1679064557910818944,0.091
1679064557918514984,0.123
1679064557926211024,0.14400000000000002
1679064557933907064,0.162
1679064557941603104,0.192
1679064557949299144,0.227
1679064557956995184,0.258
1679064557964691224,0.248
1679064557972387264,0.215
1679064557980083304,0.21
1679064557987779344,0.198
1679064557995475384,0.148
1679064558003171424,0.108
1679064558010867464,0.085
1679064558018563504,0.035
1679064558026259544,-0.025
1679064558033955584,-0.062
1679064558041651624,-0.068
1679064558049347694,-0.062,,904
1679064558057043873,-0.073
1679064558064740052,-0.073
1679064558072436231,-0.05
1679064558080132410,-0.031
1679064558087828589,-0.018000000000000002
1679064558095524768,0.008
1679064558103220947,0.027
1679064558110917126,-0.01
1679064558118613305,-0.062
1679064558126309484,-0.05
1679064558134005663,-0.01
1679064558141701842,-0.01
1679064558149398021,-0.014
1679064558157094200,0.002
1679064558164790379,0.016
1679064558172486558,0.027
1679064558180182737,0.041
1679064558187878916,0.062
1679064558195575095,0.073
1679064558203271274,0.066
1679064558210967453,0.068
1679064558218663632,0.089
1679064558226359811,0.108
1679064558234055990,0.10400000000000001
1679064558241752169,0.06
1679064558249448348,-0.01
1679064558257144527,-0.033
1679064558264840706,-0.018000000000000002
1679064558272536885,-0.027
1679064558280233064,-0.054
1679064558287929243,-0.073
1679064558295625422,-0.085
1679064558303321601,-0.081
1679064558311017780,-0.045
1679064558318713959,-0.008
1679064558326410138,0.016
1679064558334106317,0.043000000000000003
1679064558341802496,0.064
1679064558349498675,0.052000000000000005
1679064558357194854,0.02
1679064558364891033,0.025
1679064558372587212,0.06
1679064558380283391,0.062
1679064558387979570,0.039
1679064558395675749,0.033
1679064558403371928,0.025
1679064558411068107,0.01
1679064558418764286,0.008
1679064558426460465,0.014
1679064558434156644,0.083
1679064558441852823,0.367
1679064558449549002,0.864
1679064558457245181,1.221
1679064558464941360,0.847
1679064558472637539,-0.17500000000000002
1679064558480333718,-0.64
1679064558488029897,-0.192
1679064558495726076,0.10200000000000001
1679064558503422255,-0.008
1679064558511118434,0.0
1679064558518814613,0.077
1679064558526510792,0.01
1679064558534206971,-0.043000000000000003
1679064558541903150,0.0
1679064558549599329,0.029
1679064558557295508,0.01
1679064558564991687,-0.014
1679064558572687866,-0.033
1679064558580384045,-0.056
1679064558588080224,-0.077
1679064558595776403,-0.077
1679064558603472582,-0.056
1679064558611168814,-0.041,63
1679064558618865133,-0.048
1679064558626561452,-0.052000000000000005
1679064558634257771,-0.022
1679064558641954090,0.01
1679064558649650409,0.022
1679064558657346728,0.029
1679064558665043047,0.043000000000000003
1679064558672739366,0.056
1679064558680435685,0.043000000000000003
1679064558688132004,0.016
1679064558695828323,0.029
1679064558703524642,0.058
1679064558711220961,0.05
1679064558718917280,0.041
1679064558726613599,0.066
1679064558734309918,0.081
1679064558742006237,0.05
1679064558749702556,-0.037
1679064558757398875,-0.156
1679064558765095194,-0.24
1679064558772791513,-0.281
1679064558780487832,-0.308
1679064558788184151,-0.304
1679064558795880470,-0.292
1679064558803576789,-0.298
1679064558811273108,-0.28500000000000003
1679064558818969427,-0.242
1679064558826665746,-0.217
1679064558834362065,-0.20600000000000002
1679064558842058384,-0.183
1679064558849754703,-0.16
1679064558857451022,-0.148
1679064558865147341,-0.129
1679064558872843660,-0.098
1679064558880539979,-0.06
1679064558888236298,-0.039
1679064558895932617,-0.037
1679064558903628936,-0.025
1679064558911325255,0.01
1679064558919021574,0.031
1679064558926717893,0.039
1679064558934414212,0.056
1679064558942110531,0.068
1679064558949806850,0.066
1679064558957503169,0.073
1679064558965199488,0.096
1679064558972895807,0.121
1679064558980592126,0.127
1679064558988288445,0.11800000000000001
1679064558995984764,0.127
1679064559003681083,0.152
1679064559011377402,0.154
1679064559019073721,0.127,,972
1679064559026770040,0.106
1679064559034466359,0.108
1679064559042162678,0.1
1679064559049858997,0.098
1679064559057555316,0.123
1679064559065251635,0.146
1679064559072947954,0.14100000000000001
1679064559080644273,0.131
1679064559088340592,0.14400000000000002
1679064559096036911,0.164
1679064559103733230,0.169
1679064559111429549,0.17500000000000002
1679064559119125868,0.192
1679064559126822187,0.189
1679064559134518506,0.17300000000000001
1679064559142214825,0.183
1679064559149911144,0.215
1679064559157607463,0.233
1679064559165303782,0.227
1679064559173000108,0.227
1679064559180696148,0.258
1679064559188392188,0.294
1679064559196088228,0.306
1679064559203784268,0.321
1679064559211480308,0.319
1679064559219176348,0.242
1679064559226872388,0.146
1679064559234568428,0.131
1679064559242264468,0.164
1679064559249960508,0.162
1679064559257656548,0.11
1679064559265352588,0.025
1679064559273048628,-0.014
1679064559280744668,-0.008
1679064559288440708,0.0
1679064559296136748,0.139
1679064559303832788,0.536
1679064559311528828,1.018
1679064559319224868,1.16
1679064559326920908,0.526
1679064559334616948,-0.423
1679064559342312988,-0.515
1679064559350009028,0.002
1679064559357705068,0.091
1679064559365401108,-0.06
1679064559373097148,-0.02
1679064559380793188,0.018000000000000002
1679064559388489228,-0.008
1679064559396185268,0.01
1679064559403881308,0.02
1679064559411577348,0.01
1679064559419273388,0.035
1679064559426969428,0.064
1679064559434665468,0.066
1679064559442361508,0.073
1679064559450057548,0.091
1679064559457753588,0.096
1679064559465449628,0.10200000000000001
1679064559473145668,0.125
1679064559480841708,0.156
1679064559488537748,0.169
1679064559496233788,0.162
1679064559503929828,0.154
1679064559511625868,0.146
1679064559519321908,0.129
1679064559527017948,0.11800000000000001
1679064559534713988,0.108
1679064559542410028,0.089
1679064559550106068,0.064
1679064559557802108,0.043000000000000003
1679064559565498148,0.05
1679064559573194188,0.068
1679064559580890228,0.058
1679064559588586268,0.029
1679064559596282308,0.018000000000000002
1679064559603978348,0.012
1679064559611674388,-0.022
1679064559619370428,-0.064
1679064559627066468,-0.089
1679064559634762508,-0.116
1679064559642458548,-0.15
1679064559650154588,-0.156
1679064559657850628,-0.139
1679064559665546668,-0.127
1679064559673242708,-0.129
1679064559680938748,-0.131
1679064559688634788,-0.112
1679064559696330828,-0.089
1679064559704026868,-0.081
1679064559711722908,-0.066
1679064559719418948,-0.039
1679064559727114988,-0.033
1679064559734811056,-0.037,63
1679064559742507514,-0.018000000000000002
1679064559750203972,-0.002
1679064559757900430,-0.05
1679064559765596888,-0.14100000000000001
1679064559773293346,-0.183
1679064559780989804,-0.166
1679064559788686262,-0.183
1679064559796382720,-0.23700000000000002
1679064559804079178,-0.24
1679064559811775636,-0.20800000000000002
1679064559819472094,-0.219
1679064559827168552,-0.231
1679064559834865010,-0.2
1679064559842561468,-0.166
1679064559850257926,-0.156
1679064559857954384,-0.152
1679064559865650842,-0.137
1679064559873347300,-0.11800000000000001
1679064559881043758,-0.10400000000000001
1679064559888740216,-0.08700000000000001
1679064559896436674,-0.06
1679064559904133132,-0.035
1679064559911829590,-0.039,,896
1679064559919526048,-0.039
1679064559927222506,-0.004
1679064559934918964,0.022
1679064559942615422,0.029
1679064559950311880,0.035
1679064559958008338,0.052000000000000005
1679064559965704796,0.062
1679064559973401254,0.066
1679064559981097712,0.081
1679064559988794170,0.108
1679064559996490628,0.114
1679064560004187086,0.077
1679064560011883544,0.054
1679064560019580002,0.075
1679064560027276460,0.091
1679064560034972918,0.08700000000000001
1679064560042669376,0.093
1679064560050365834,0.106
1679064560058062292,0.106
1679064560065758750,0.106
1679064560073455208,0.123
1679064560081151666,0.146
1679064560088848124,0.154
1679064560096544582,0.14100000000000001
1679064560104241040,0.14400000000000002
1679064560111937498,0.171
1679064560119633956,0.183
1679064560127330414,0.183
1679064560135026872,0.194
1679064560142723330,0.202
1679064560150419788,0.198
1679064560158116246,0.198
1679064560165812704,0.215
1679064560173509162,0.244
1679064560181205620,0.267
1679064560188902078,0.269
1679064560196598536,0.281
1679064560204294994,0.304
1679064560211991452,0.28500000000000003
1679064560219687910,0.244
1679064560227384368,0.242
1679064560235080826,0.256
1679064560242777284,0.242
1679064560250473742,0.212
1679064560258170200,0.177
1679064560265866658,0.10200000000000001
1679064560273563116,0.002
1679064560281259574,-0.041
1679064560288956032,0.02
1679064560296652522,0.267
1679064560304348980,0.722
1679064560312045438,1.127
1679064560319741896,0.914
1679064560327438354,-0.079
1679064560335134812,-0.768
1679064560342831270,-0.432
1679064560350527728,-0.045
1679064560358224186,-0.166
1679064560365920644,-0.225
1679064560373617102,-0.123
1679064560381313560,-0.11800000000000001
1679064560389010018,-0.137
1679064560396706476,-0.096
1679064560404402934,-0.064
1679064560412099392,-0.054
1679064560419795850,-0.054
1679064560427492308,-0.079
1679064560435188766,-0.093
1679064560442885224,-0.089
1679064560450581682,-0.112
1679064560458278140,-0.14100000000000001
1679064560465974598,-0.135
1679064560473671056,-0.11800000000000001
1679064560481367514,-0.116
1679064560489063972,-0.125
1679064560496760430,-0.137
1679064560504456888,-0.15
1679064560512153346,-0.156
1679064560519849804,-0.148
1679064560527546262,-0.114
1679064560535242720,-0.079
1679064560542939178,-0.064
1679064560550635636,-0.048
1679064560558332094,-0.027
1679064560566028552,-0.01
1679064560573725010,0.002
1679064560581421468,0.02
1679064560589117926,0.048
1679064560596814384,0.052000000000000005
1679064560604510842,0.016
1679064560612207300,-0.014
1679064560619903758,-0.022
1679064560627600216,-0.041
1679064560635296674,-0.07
1679064560642993132,-0.085
1679064560650689590,-0.089
1679064560658386048,-0.093
1679064560666082506,-0.089
1679064560673778964,-0.07
1679064560681475422,-0.039
1679064560689171880,-0.022
1679064560696868338,-0.025
1679064560704564796,-0.014
1679064560712261254,0.018000000000000002,,797
1679064560719957712,0.039
1679064560727654170,0.045
1679064560735350628,0.045
1679064560743047086,0.02
1679064560750743544,-0.01
1679064560758440002,-0.01
1679064560766136460,-0.012
1679064560773832918,-0.064
1679064560781529376,-0.127
1679064560789225834,-0.135
1679064560796922292,-0.112
1679064560804618750,-0.096
1679064560812315208,-0.089
1679064560820011666,-0.081
1679064560827708124,-0.06
1679064560835404582,-0.052000000000000005
1679064560843101040,-0.062
1679064560850797498,-0.05
1679064560858493988,-0.014,64
1679064560866190028,0.004
1679064560873886068,0.004
1679064560881582108,0.0
1679064560889278148,0.008
1679064560896974188,0.01
1679064560904670228,-0.027
1679064560912366268,-0.048
1679064560920062308,-0.027
1679064560927758348,-0.027
1679064560935454388,-0.048
1679064560943150428,-0.031
1679064560950846468,0.0
1679064560958542508,0.016
1679064560966238548,0.02
1679064560973934588,0.022
1679064560981630628,0.016
1679064560989326668,-0.01
1679064560997022708,-0.033
1679064561004718748,-0.025
1679064561012414788,-0.025
1679064561020110828,-0.052000000000000005
1679064561027806868,-0.054
1679064561035502908,-0.025
1679064561043198948,-0.006
1679064561050894988,0.004
1679064561058591028,0.004
1679064561066287068,-0.018000000000000002
1679064561073983108,-0.039
1679064561081679148,-0.039
1679064561089375188,-0.029
1679064561097071228,-0.01
1679064561104767268,0.0
1679064561112463308,-0.018000000000000002
1679064561120159348,-0.027
1679064561127855388,0.014
1679064561135551428,0.037
1679064561143247468,0.004
1679064561150943508,-0.008
1679064561158639548,0.018000000000000002
1679064561166335588,0.041
1679064561174031628,0.043000000000000003
1679064561181727668,0.041
1679064561189423708,0.06
1679064561197119748,0.089
1679064561204815788,0.108
1679064561212511828,0.123
1679064561220207868,0.133
1679064561227903908,0.096
1679064561235599948,0.016
1679064561243295988,-0.062
1679064561250992028,-0.112
1679064561258688068,-0.131
1679064561266384108,-0.14100000000000001
1679064561274080148,-0.177
1679064561281776188,-0.23700000000000002
1679064561289472228,-0.277
1679064561297168268,-0.29
1679064561304864308,-0.29
1679064561312560348,-0.242
1679064561320256388,-0.037
1679064561327952428,0.388
1679064561335648468,0.857
1679064561343344508,0.86
1679064561351040548,0.045
1679064561358736588,-0.78
1679064561366432628,-0.647
1679064561374128668,-0.187
1679064561381824708,-0.177
1679064561389520748,-0.254
1679064561397216788,-0.164
1679064561404912828,-0.114
1679064561412608868,-0.127
1679064561420304938,-0.096,65
1679064561428001396,-0.052000000000000005
1679064561435697854,-0.048
1679064561443394312,-0.045
1679064561451090770,-0.018000000000000002
1679064561458787228,0.012
1679064561466483686,0.045
1679064561474180144,0.066,,761
1679064561481876602,0.043000000000000003
1679064561489573060,0.018000000000000002
1679064561497269518,0.018000000000000002
1679064561504965976,-0.004
1679064561512662434,-0.016
1679064561520358892,0.016
1679064561528055350,0.025
1679064561535751808,0.018000000000000002
1679064561543448266,0.052000000000000005
1679064561551144724,0.1
1679064561558841182,0.125
1679064561566537640,0.139
1679064561574234098,0.156
1679064561581930556,0.181
1679064561589627014,0.20600000000000002
