ts,red,ir,green
1679064549663880,122634.0,136785.0,11545.0
1679064549672880,122631.0,136799.0,11539.0
1679064549682880,122616.0,136776.0,11542.0
1679064549693881,122644.0,136774.0,11565.0
1679064549703881,122624.0,136763.0,11570.0
1679064549712881,122618.0,136778.0,11546.0
1679064549722881,122627.0,136778.0,11541.0
1679064549733881,122644.0,136772.0,11524.0
1679064549743881,122629.0,136763.0,11543.0
1679064549753881,122610.0,136757.0,11555.0
1679064549762881,122607.0,136769.0,11558.0
1679064549773881,122631.0,136745.0,11537.0
1679064549783881,122611.0,136734.0,11544.0
1679064549793881,122628.0,136744.0,11574.0
1679064549802881,122619.0,136727.0,11571.0
1679064549813881,122557.0,136756.0,11572.0
1679064549823881,122620.0,136732.0,11582.0
1679064549833881,122626.0,136740.0,11576.0
1679064549842881,122634.0,136720.0,11581.0
1679064549853881,122622.0,136732.0,11576.0
1679064549863880,122621.0,136712.0,11574.0
1679064549873881,122628.0,136727.0,11573.0
1679064549882881,122622.0,136726.0,11561.0
1679064549892881,122629.0,136725.0,11575.0
1679064549903881,122650.0,136735.0,11544.0
1679064549913881,122585.0,136727.0,11573.0
1679064549923881,122599.0,136744.0,11551.0
1679064549932881,122603.0,136654.0,11572.0
1679064549943881,122627.0,136680.0,11575.0
1679064549953881,122610.0,136657.0,11569.0
1679064549963881,122608.0,136668.0,11564.0
1679064549972881,122616.0,136658.0,11573.0
1679064549983881,122609.0,136658.0,11584.0
1679064549993881,122568.0,136638.0,11571.0
1679064550003881,122601.0,136664.0,11574.0
1679064550012881,122603.0,136647.0,11572.0
1679064550023881,122592.0,136624.0,11585.0
1679064550033881,122602.0,136624.0,11578.0
1679064550043881,122596.0,136643.0,11559.0
1679064550052881,122609.0,136617.0,11573.0
1679064550063881,122599.0,136628.0,11576.0
1679064550073881,122602.0,136656.0,11581.0
1679064550083881,122582.0,136671.0,11582.0
1679064550092881,122574.0,136638.0,11566.0
1679064550102881,122589.0,136627.0,11566.0
1679064550113881,122508.0,136608.0,11580.0
1679064550123881,122588.0,136585.0,11583.0
1679064550133881,122575.0,136592.0,11583.0
1679064550142881,122587.0,136616.0,11583.0
1679064550153881,122576.0,136625.0,11581.0
1679064550163881,122582.0,136589.0,11583.0
1679064550173881,122577.0,136613.0,11584.0
1679064550182881,122572.0,136611.0,11575.0
1679064550193881,122583.0,136620.0,11577.0
1679064550203881,122604.0,136642.0,11574.0
1679064550212881,122601.0,136723.0,11576.0
1679064550222881,122634.0,136764.0,11577.0
1679064550233881,122658.0,136858.0,11583.0
1679064550243881,122671.0,136936.0,11566.0
1679064550253881,122644.0,136994.0,11553.0
1679064550263881,122583.0,137065.0,11577.0
1679064550272881,122613.0,137068.0,11573.0
1679064550283881,122605.0,137083.0,11560.0
1679064550293881,122623.0,137088.0,11561.0
1679064550302881,122541.0,137063.0,11568.0
1679064550312881,122519.0,137021.0,11560.0
1679064550323881,122520.0,137016.0,11557.0
1679064550333881,122549.0,136994.0,11551.0
1679064550342881,122537.0,136981.0,11550.0
1679064550352881,122549.0,136921.0,11553.0
1679064550363881,122564.0,136923.0,11571.0
1679064550373881,122550.0,136898.0,11564.0
1679064550383881,122559.0,136859.0,11582.0
1679064550392881,122549.0,136835.0,11554.0
1679064550403881,122524.0,136847.0,11580.0
1679064550413881,122510.0,136845.0,11557.0
1679064550422881,122539.0,136811.0,11563.0
1679064550432881,122551.0,136721.0,11565.0
1679064550442881,122544.0,136770.0,11541.0
1679064550453881,122537.0,136721.0,11524.0
1679064550462881,122529.0,136701.0,11551.0
1679064550473881,122537.0,136678.0,11569.0
1679064550484881,122516.0,136665.0,11569.0
1679064550493881,122508.0,136673.0,11597.0
1679064550503881,122478.0,136649.0,11566.0
1679064550512881,122512.0,136661.0,11571.0
1679064550522881,122520.0,136666.0,11574.0
1679064550533881,122521.0,136673.0,11571.0
1679064550543881,122546.0,136674.0,11581.0
1679064550553881,122525.0,136682.0,11580.0
1679064550562881,122512.0,136653.0,11571.0
1679064550573881,122536.0,136680.0,11578.0
1679064550585881,122524.0,136675.0,11569.0
1679064550592881,122527.0,136680.0,11596.0
1679064550602881,122546.0,136705.0,11576.0
1679064550612881,122518.0,136699.0,11576.0
1679064550623881,122545.0,136696.0,11532.0
1679064550632881,122534.0,136708.0,11548.0
1679064550642881,122534.0,136692.0,11535.0
1679064550652881,122534.0,136699.0,11563.0
1679064550663881,122505.0,136728.0,11578.0
1679064550672881,122503.0,136703.0,11576.0
1679064550683881,122540.0,136672.0,11569.0
1679064550692881,122523.0,136662.0,11564.0
1679064550703881,122504.0,136672.0,11570.0
1679064550712881,122525.0,136599.0,11569.0
1679064550722881,122520.0,136607.0,11560.0
1679064550732881,122513.0,136595.0,11568.0
1679064550743881,122499.0,136580.0,11573.0
1679064550753881,122506.0,136585.0,11563.0
1679064550762881,122504.0,136616.0,11565.0
1679064550772881,122517.0,136573.0,11562.0
1679064550782881,122516.0,136585.0,11568.0
1679064550793881,122521.0,136609.0,11570.0
1679064550802881,122526.0,136586.0,11579.0
1679064550812881,122519.0,136638.0,11573.0
1679064550822881,122508.0,136625.0,11571.0
1679064550833881,122507.0,136584.0,11543.0
1679064550842881,122523.0,136610.0,11570.0
1679064550852881,122534.0,136629.0,11564.0
1679064550862881,122523.0,136607.0,11544.0
1679064550873880,122522.0,136620.0,11520.0
1679064550882881,122502.0,136604.0,11546.0
1679064550892881,122536.0,136610.0,11579.0
1679064550902881,122511.0,136583.0,11569.0
1679064550913880,122502.0,136601.0,11581.0
1679064550922881,122509.0,136586.0,11569.0
1679064550933880,122499.0,136605.0,11576.0
1679064550942880,122497.0,136572.0,11583.0
1679064550952881,122500.0,136561.0,11558.0
1679064550962881,122518.0,136545.0,11546.0
1679064550972881,122454.0,136552.0,11577.0
1679064550983881,122465.0,136559.0,11585.0
1679064550992881,122489.0,136543.0,11584.0
1679064551003881,122458.0,136552.0,11590.0
1679064551012881,122454.0,136524.0,11585.0
1679064551023881,122459.0,136495.0,11576.0
1679064551032881,122466.0,136494.0,11586.0
1679064551043881,122478.0,136516.0,11581.0
1679064551052881,122479.0,136503.0,11577.0
1679064551063881,122465.0,136495.0,11586.0
1679064551072881,122459.0,136501.0,11574.0
1679064551083881,122470.0,136492.0,11587.0
1679064551092881,122466.0,136489.0,11584.0
1679064551103881,122446.0,136477.0,11583.0
1679064551112881,122459.0,136492.0,11592.0
1679064551122881,122446.0,136464.0,11582.0
1679064551132881,122455.0,136457.0,11564.0
1679064551142881,122457.0,136456.0,11559.0
1679064551153881,122429.0,136441.0,11570.0
1679064551162881,122400.0,136467.0,11567.0
1679064551172881,122421.0,136419.0,11570.0
1679064551182881,122434.0,136379.0,11569.0
1679064551192881,122414.0,136431.0,11585.0
1679064551203881,122425.0,136418.0,11539.0
1679064551211881,122437.0,136421.0,11556.0
1679064551222880,122463.0,136463.0,11588.0
1679064551232880,122412.0,136523.0,11590.0
1679064551243880,122444.0,136583.0,11587.0
1679064551252880,122478.0,136691.0,11575.0
1679064551262880,122493.0,136782.0,11578.0
1679064551272880,122499.0,136826.0,11576.0
1679064551283880,122497.0,136838.0,11574.0
1679064551292880,122476.0,136859.0,11570.0
1679064551302880,122478.0,136862.0,11562.0
1679064551312881,122454.0,136843.0,11551.0
1679064551323881,122435.0,136855.0,11555.0
1679064551333881,122442.0,136849.0,11566.0
1679064551341881,122448.0,136829.0,11561.0
1679064551352881,122417.0,136812.0,11573.0
1679064551362881,122389.0,136773.0,11572.0
1679064551373880,122393.0,136779.0,11561.0
1679064551381880,122416.0,136743.0,11565.0
1679064551392880,122431.0,136722.0,11568.0
1679064551402880,122434.0,136709.0,11555.0
1679064551413880,122434.0,136685.0,11553.0
1679064551422880,122422.0,136670.0,11563.0
1679064551432880,122423.0,136594.0,11564.0
1679064551442880,122415.0,136552.0,11566.0
1679064551453880,122409.0,136582.0,11566.0
1679064551462880,122408.0,136517.0,11567.0
1679064551472880,122393.0,136481.0,11575.0
1679064551482880,122387.0,136475.0,11571.0
1679064551493881,122380.0,136452.0,11575.0
1679064551502881,122387.0,136537.0,11563.0
1679064551512881,122382.0,136447.0,11578.0
1679064551522881,122383.0,136437.0,11584.0
1679064551533881,122390.0,136451.0,11577.0
1679064551543881,122391.0,136453.0,11584.0
1679064551552881,122391.0,136481.0,11572.0
1679064551562881,122395.0,136515.0,11580.0
1679064551572881,122395.0,136509.0,11573.0
1679064551583881,122406.0,136532.0,11576.0
1679064551593881,122394.0,136555.0,11569.0
1679064551602881,122401.0,136568.0,11609.0
1679064551612881,122402.0,136560.0,11581.0
1679064551623881,122369.0,136573.0,11585.0
1679064551631881,122358.0,136557.0,11578.0
1679064551642881,122369.0,136540.0,11580.0
1679064551652881,122400.0,136551.0,11575.0
1679064551663880,122399.0,136517.0,11587.0
1679064551672881,122389.0,136504.0,11576.0
1679064551682881,122393.0,136511.0,11586.0
1679064551694881,122390.0,136491.0,11574.0
1679064551703881,122381.0,136493.0,11552.0
1679064551711881,122379.0,136467.0,11571.0
1679064551721881,122372.0,136464.0,11588.0
1679064551732881,122367.0,136481.0,11547.0
1679064551742881,122362.0,136467.0,11554.0
1679064551753881,122370.0,136441.0,11544.0
1679064551761880,122341.0,136440.0,11568.0
1679064551772880,122364.0,136422.0,11572.0
1679064551782880,122368.0,136404.0,11571.0
1679064551794880,122355.0,136406.0,11566.0
1679064551801880,122363.0,136360.0,11567.0
1679064551812880,122348.0,136415.0,11567.0
1679064551822880,122358.0,136398.0,11582.0
1679064551833880,122353.0,136409.0,11582.0
1679064551842880,122349.0,136400.0,11581.0
1679064551852881,122353.0,136334.0,11583.0
1679064551862881,122351.0,136327.0,11583.0
1679064551872881,122357.0,136365.0,11564.0
1679064551882881,122352.0,136357.0,11558.0
1679064551891881,122330.0,136372.0,11558.0
1679064551902881,122318.0,136373.0,11563.0
1679064551912881,122349.0,136365.0,11577.0
1679064551922881,122333.0,136361.0,11576.0
1679064551932881,122327.0,136372.0,11576.0
1679064551942881,122337.0,136331.0,11584.0
1679064551952881,122320.0,136343.0,11581.0
1679064551961881,122337.0,136325.0,11585.0
1679064551972881,122338.0,136358.0,11550.0
1679064551982881,122329.0,136366.0,11554.0
1679064551992881,122324.0,136337.0,11536.0
1679064552003881,122309.0,136325.0,11552.0
1679064552012881,122327.0,136321.0,11573.0
1679064552021881,122323.0,136334.0,11576.0
1679064552032881,122319.0,136305.0,11551.0
1679064552042881,122312.0,136308.0,11545.0
1679064552052881,122293.0,136309.0,11575.0
1679064552062881,122298.0,136265.0,11580.0
1679064552072881,122296.0,136266.0,11588.0
1679064552082881,122293.0,136255.0,11579.0
1679064552091881,122295.0,136315.0,11561.0
1679064552102881,122282.0,136302.0,11551.0
1679064552112881,122302.0,136307.0,11578.0
1679064552122881,122325.0,136324.0,11560.0
1679064552131881,122336.0,136402.0,11575.0
1679064552142881,122308.0,136485.0,11575.0
1679064552152881,122320.0,136555.0,11583.0
1679064552162881,122339.0,136617.0,11576.0
1679064552171881,122323.0,136640.0,11577.0
1679064552182881,122343.0,136592.0,11589.0
1679064552192880,122326.0,136612.0,11564.0
1679064552202880,122312.0,136623.0,11563.0
1679064552211881,122285.0,136621.0,11555.0
1679064552221881,122288.0,136638.0,11562.0
1679064552232881,122314.0,136667.0,11545.0
1679064552242881,122298.0,136628.0,11555.0
1679064552252881,122274.0,136618.0,11560.0
1679064552261881,122261.0,136600.0,11556.0
1679064552272881,122273.0,136600.0,11560.0
1679064552282881,122283.0,136533.0,11563.0
1679064552293881,122271.0,136518.0,11561.0
1679064552301880,122276.0,136468.0,11571.0
1679064552312880,122272.0,136462.0,11564.0
1679064552322880,122271.0,136439.0,11564.0
1679064552333880,122268.0,136413.0,11567.0
1679064552341880,122275.0,136405.0,11568.0
1679064552352880,122257.0,136407.0,11572.0
1679064552362880,122245.0,136365.0,11573.0
1679064552373880,122252.0,136337.0,11567.0
1679064552381880,122243.0,136328.0,11571.0
1679064552392881,122243.0,136316.0,11577.0
1679064552402881,122231.0,136321.0,11574.0
1679064552412881,122228.0,136304.0,11573.0
1679064552421881,122247.0,136314.0,11558.0
1679064552432881,122250.0,136317.0,11573.0
1679064552442881,122258.0,136329.0,11570.0
1679064552452881,122259.0,136343.0,11573.0
1679064552461881,122278.0,136351.0,11554.0
1679064552471881,122273.0,136377.0,11569.0
1679064552482881,122279.0,136450.0,11572.0
1679064552492881,122245.0,136428.0,11570.0
1679064552502881,122242.0,136408.0,11567.0
1679064552511881,122254.0,136382.0,11561.0
1679064552522881,122255.0,136383.0,11552.0
1679064552532881,122260.0,136369.0,11552.0
1679064552542881,122240.0,136379.0,11540.0
1679064552551881,122243.0,136367.0,11558.0
1679064552562881,122218.0,136339.0,11555.0
1679064552572881,122226.0,136334.0,11559.0
1679064552582881,122221.0,136324.0,11550.0
1679064552591881,122240.0,136348.0,11560.0
1679064552602881,122228.0,136331.0,11561.0
1679064552612881,122239.0,136306.0,11565.0
1679064552622881,122217.0,136306.0,11576.0
1679064552631881,122219.0,136236.0,11530.0
1679064552641881,122229.0,136252.0,11551.0
1679064552652881,122225.0,136268.0,11551.0
1679064552662881,122226.0,136280.0,11578.0
1679064552671881,122183.0,136270.0,11577.0
1679064552681881,122171.0,136231.0,11572.0
1679064552692881,122178.0,136239.0,11580.0
1679064552701881,122164.0,136238.0,11581.0
1679064552711881,122212.0,136231.0,11554.0
1679064552721881,122217.0,136237.0,11556.0
1679064552732881,122201.0,136250.0,11552.0
1679064552742881,122193.0,136244.0,11558.0
1679064552752881,122206.0,136278.0,11566.0
1679064552761881,122176.0,136244.0,11574.0
1679064552772881,122197.0,136255.0,11573.0
1679064552782881,122200.0,136191.0,11570.0
1679064552792881,122201.0,136221.0,11581.0
1679064552801881,122213.0,136223.0,11585.0
1679064552811881,122220.0,136216.0,11579.0
1679064552822881,122181.0,136248.0,11577.0
1679064552832881,122192.0,136264.0,11582.0
1679064552841881,122196.0,136306.0,11576.0
1679064552851881,122197.0,136275.0,11573.0
1679064552862881,122201.0,136270.0,11569.0
1679064552872881,122198.0,136265.0,11574.0
1679064552881881,122216.0,136258.0,11576.0
1679064552891881,122200.0,136288.0,11577.0
1679064552902881,122209.0,136269.0,11578.0
1679064552911881,122226.0,136261.0,11545.0
1679064552921881,122229.0,136272.0,11541.0
1679064552931881,122235.0,136284.0,11548.0
1679064552942881,122234.0,136297.0,11552.0
1679064552952881,122237.0,136334.0,11570.0
1679064552961881,122257.0,136401.0,11580.0
1679064552971881,122276.0,136466.0,11589.0
1679064552982881,122299.0,136555.0,11579.0
1679064552992881,122295.0,136619.0,11577.0
1679064553002881,122325.0,136660.0,11575.0
1679064553011881,122337.0,136709.0,11574.0
1679064553022881,122250.0,136755.0,11570.0
1679064553032881,122286.0,136768.0,11570.0
1679064553042881,122269.0,136741.0,11561.0
1679064553051881,122259.0,136732.0,11564.0
1679064553062881,122251.0,136752.0,11566.0
1679064553072881,122266.0,136749.0,11557.0
1679064553082881,122262.0,136731.0,11560.0
1679064553091881,122273.0,136712.0,11565.0
1679064553102881,122277.0,136685.0,11565.0
1679064553112881,122284.0,136735.0,11556.0
1679064553121881,122277.0,136609.0,11567.0
1679064553131881,122298.0,136655.0,11570.0
1679064553141881,122294.0,136655.0,11538.0
1679064553152881,122313.0,136629.0,11533.0
1679064553162881,122307.0,136600.0,11552.0
1679064553171881,122305.0,136687.0,11568.0
1679064553181881,122289.0,136536.0,11570.0
1679064553192881,122282.0,136535.0,11565.0
1679064553202881,122302.0,136537.0,11565.0
1679064553211881,122288.0,136565.0,11556.0
1679064553221881,122298.0,136516.0,11559.0
1679064553231881,122286.0,136512.0,11537.0
1679064553242881,122300.0,136508.0,11534.0
1679064553252881,122295.0,136510.0,11546.0
1679064553261881,122294.0,136515.0,11543.0
1679064553271881,122297.0,136503.0,11542.0
1679064553282881,122281.0,136531.0,11547.0
1679064553292881,122303.0,136549.0,11583.0
1679064553302881,122266.0,136542.0,11566.0
1679064553311881,122318.0,136575.0,11568.0
1679064553322881,122285.0,136596.0,11563.0
1679064553332881,122317.0,136599.0,11574.0
1679064553341881,122323.0,136624.0,11568.0
1679064553351881,122322.0,136619.0,11568.0
1679064553362881,122320.0,136578.0,11584.0
1679064553372881,122315.0,136596.0,11571.0
1679064553381881,122321.0,136546.0,11582.0
1679064553391881,122327.0,136543.0,11582.0
1679064553403881,122326.0,136535.0,11582.0
1679064553412881,122312.0,136581.0,11579.0
1679064553421881,122317.0,136543.0,11587.0
1679064553431881,122318.0,136550.0,11584.0
1679064553442881,122332.0,136533.0,11587.0
1679064553452881,122314.0,136548.0,11584.0
1679064553461881,122319.0,136533.0,11590.0
1679064553471881,122322.0,136496.0,11586.0
1679064553481881,122314.0,136500.0,11589.0
1679064553492881,122338.0,136499.0,11574.0
1679064553502881,122343.0,136495.0,11554.0
1679064553511881,122268.0,136511.0,11591.0
1679064553521881,122336.0,136507.0,11559.0
1679064553532881,122339.0,136522.0,11596.0
1679064553541881,122290.0,136502.0,11591.0
1679064553551881,122303.0,136511.0,11604.0
1679064553561881,122341.0,136470.0,11588.0
1679064553572881,122321.0,136508.0,11588.0
1679064553582881,122324.0,136506.0,11591.0
1679064553591881,122321.0,136495.0,11595.0
1679064553601881,122326.0,136513.0,11587.0
1679064553612881,122313.0,136510.0,11590.0
1679064553622881,122333.0,136473.0,11597.0
1679064553631881,122327.0,136461.0,11588.0
1679064553641881,122342.0,136474.0,11591.0
1679064553651881,122337.0,136434.0,11588.0
1679064553662881,122346.0,136497.0,11568.0
1679064553671881,122296.0,136510.0,11591.0
1679064553681881,122330.0,136497.0,11604.0
1679064553691881,122332.0,136521.0,11582.0
1679064553702881,122331.0,136511.0,11584.0
1679064553711881,122335.0,136513.0,11580.0
1679064553721881,122335.0,136513.0,11585.0
1679064553731881,122331.0,136520.0,11584.0
1679064553742881,122336.0,136512.0,11587.0
1679064553751881,122335.0,136516.0,11586.0
1679064553761881,122331.0,136516.0,11591.0
1679064553771881,122344.0,136517.0,11592.0
1679064553782881,122343.0,136517.0,11604.0
1679064553792881,122344.0,136526.0,11596.0
1679064553801881,122336.0,136471.0,11590.0
1679064553811881,122324.0,136496.0,11594.0
1679064553822881,122325.0,136455.0,11590.0
1679064553832881,122338.0,136443.0,11595.0
1679064553840881,122304.0,136483.0,11592.0
1679064553851881,122331.0,136478.0,11547.0
1679064553861881,122285.0,136480.0,11595.0
1679064553872881,122324.0,136501.0,11584.0
1679064553881881,122330.0,136514.0,11582.0
1679064553891881,122362.0,136582.0,11594.0
1679064553901881,122379.0,136603.0,11574.0
1679064553912881,122404.0,136700.0,11592.0
1679064553921881,122370.0,136724.0,11589.0
1679064553931881,122421.0,136828.0,11595.0
1679064553941881,122410.0,136866.0,11580.0
1679064553951881,122368.0,136885.0,11572.0
1679064553961881,122370.0,136901.0,11570.0
1679064553971881,122348.0,136912.0,11572.0
1679064553981881,122342.0,136903.0,11571.0
1679064553991881,122292.0,136927.0,11568.0
1679064554002880,122293.0,136890.0,11573.0
1679064554011881,122285.0,136860.0,11570.0
1679064554021881,122317.0,136816.0,11568.0
1679064554031881,122265.0,136849.0,11577.0
1679064554042881,122269.0,136829.0,11584.0
1679064554051881,122310.0,136755.0,11561.0
1679064554061881,122321.0,136707.0,11579.0
1679064554071881,122306.0,136680.0,11577.0
1679064554082881,122325.0,136710.0,11578.0
1679064554091881,122332.0,136721.0,11573.0
1679064554101881,122322.0,136696.0,11550.0
1679064554111881,122327.0,136677.0,11547.0
1679064554121881,122313.0,136679.0,11583.0
1679064554131881,122292.0,136633.0,11553.0
1679064554141881,122301.0,136605.0,11563.0
1679064554151881,122305.0,136593.0,11548.0
1679064554161881,122290.0,136569.0,11588.0
1679064554171881,122265.0,136570.0,11593.0
1679064554181881,122266.0,136563.0,11584.0
1679064554192881,122298.0,136586.0,11582.0
1679064554201881,122296.0,136524.0,11577.0
1679064554211881,122314.0,136558.0,11593.0
1679064554221881,122336.0,136584.0,11596.0
1679064554231881,122312.0,136550.0,11595.0
1679064554241881,122319.0,136549.0,11587.0
1679064554252881,122316.0,136568.0,11601.0
1679064554261881,122319.0,136605.0,11589.0
1679064554271881,122306.0,136603.0,11584.0
1679064554282881,122335.0,136619.0,11604.0
1679064554291881,122316.0,136603.0,11589.0
1679064554301881,122321.0,136574.0,11591.0
1679064554312881,122328.0,136595.0,11591.0
1679064554321881,122318.0,136559.0,11590.0
1679064554331881,122319.0,136603.0,11592.0
1679064554341881,122322.0,136607.0,11590.0
1679064554351881,122323.0,136547.0,11594.0
1679064554362881,122328.0,136554.0,11594.0
1679064554371881,122315.0,136535.0,11591.0
1679064554380881,122319.0,136532.0,11596.0
1679064554391881,122334.0,136562.0,11568.0
1679064554401881,122319.0,136566.0,11582.0
1679064554412881,122320.0,136568.0,11587.0
1679064554420881,122301.0,136549.0,11586.0
1679064554431881,122310.0,136555.0,11587.0
1679064554441881,122314.0,136470.0,11590.0
1679064554452880,122313.0,136488.0,11585.0
1679064554461881,122328.0,136472.0,11596.0
1679064554471881,122307.0,136504.0,11595.0
1679064554481881,122311.0,136488.0,11593.0
1679064554492880,122309.0,136486.0,11603.0
1679064554501881,122307.0,136495.0,11596.0
1679064554513881,122302.0,136508.0,11588.0
1679064554521880,122305.0,136478.0,11593.0
1679064554531880,122295.0,136501.0,11583.0
1679064554541880,122305.0,136451.0,11585.0
1679064554551881,122301.0,136452.0,11594.0
1679064554561881,122303.0,136480.0,11599.0
1679064554571881,122310.0,136476.0,11575.0
1679064554582881,122288.0,136493.0,11598.0
1679064554590880,122301.0,136486.0,11595.0
1679064554601880,122305.0,136494.0,11600.0
1679064554611880,122294.0,136490.0,11588.0
1679064554622880,122295.0,136420.0,11597.0
1679064554630880,122291.0,136470.0,11596.0
1679064554641880,122299.0,136476.0,11593.0
1679064554651880,122267.0,136448.0,11588.0
1679064554662880,122268.0,136427.0,11592.0
1679064554670880,122284.0,136444.0,11591.0
1679064554681880,122267.0,136444.0,11583.0
1679064554691880,122266.0,136418.0,11581.0
1679064554701880,122267.0,136358.0,11591.0
1679064554711880,122281.0,136442.0,11586.0
1679064554720880,122277.0,136424.0,11572.0
1679064554731881,122258.0,136385.0,11586.0
1679064554741881,122273.0,136396.0,11572.0
1679064554752881,122235.0,136394.0,11589.0
1679064554760881,122209.0,136426.0,11582.0
1679064554771880,122251.0,136390.0,11583.0
1679064554781880,122262.0,136341.0,11585.0
1679064554792880,122240.0,136362.0,11589.0
1679064554800880,122251.0,136344.0,11589.0
1679064554811880,122248.0,136357.0,11587.0
1679064554821880,122259.0,136335.0,11587.0
1679064554831880,122257.0,136392.0,11577.0
1679064554840880,122239.0,136409.0,11591.0
1679064554851880,122245.0,136389.0,11590.0
1679064554861880,122268.0,136359.0,11588.0
1679064554871880,122249.0,136372.0,11595.0
1679064554880880,122264.0,136376.0,11597.0
1679064554891880,122244.0,136371.0,11588.0
1679064554901880,122246.0,136376.0,11606.0
1679064554912881,122262.0,136471.0,11598.0
1679064554920881,122307.0,136515.0,11596.0
1679064554930881,122310.0,136612.0,11590.0
1679064554941881,122336.0,136710.0,11569.0
1679064554951881,122290.0,136740.0,11590.0
1679064554961881,122285.0,136783.0,11584.0
1679064554970881,122264.0,136796.0,11574.0
1679064554981881,122288.0,136782.0,11571.0
1679064554991881,122245.0,136786.0,11574.0
1679064555002880,122255.0,136791.0,11566.0
1679064555010880,122232.0,136792.0,11566.0
1679064555021880,122239.0,136762.0,11569.0
1679064555031880,122200.0,136710.0,11571.0
1679064555042880,122235.0,136731.0,11572.0
1679064555051880,122255.0,136716.0,11568.0
1679064555060880,122246.0,136683.0,11560.0
1679064555071880,122248.0,136677.0,11542.0
1679064555081880,122227.0,136665.0,11544.0
1679064555091881,122255.0,136668.0,11564.0
1679064555100881,122210.0,136615.0,11579.0
1679064555111881,122256.0,136651.0,11562.0
1679064555121881,122266.0,136598.0,11571.0
1679064555131881,122264.0,136596.0,11568.0
1679064555140881,122232.0,136591.0,11578.0
1679064555151881,122242.0,136556.0,11575.0
1679064555161881,122234.0,136532.0,11570.0
1679064555171881,122257.0,136524.0,11575.0
1679064555180881,122236.0,136512.0,11572.0
1679064555191881,122256.0,136487.0,11585.0
1679064555201881,122264.0,136513.0,11580.0
1679064555211881,122264.0,136483.0,11586.0
1679064555220881,122272.0,136501.0,11595.0
1679064555231881,122272.0,136513.0,11556.0
1679064555241881,122272.0,136480.0,11578.0
1679064555252880,122271.0,136501.0,11577.0
1679064555260880,122276.0,136513.0,11579.0
1679064555271881,122282.0,136521.0,11590.0
1679064555281881,122282.0,136565.0,11585.0
1679064555291881,122281.0,136571.0,11543.0
1679064555301881,122274.0,136575.0,11583.0
1679064555310881,122280.0,136582.0,11579.0
1679064555321881,122265.0,136564.0,11578.0
1679064555331881,122281.0,136562.0,11576.0
1679064555340881,122233.0,136552.0,11589.0
1679064555350881,122225.0,136532.0,11593.0
1679064555361881,122226.0,136530.0,11588.0
1679064555371881,122258.0,136476.0,11579.0
1679064555381881,122249.0,136483.0,11583.0
1679064555390881,122268.0,136451.0,11583.0
1679064555401881,122267.0,136485.0,11587.0
1679064555411881,122259.0,136476.0,11584.0
1679064555421881,122263.0,136480.0,11546.0
1679064555430881,122255.0,136504.0,11575.0
1679064555441881,122248.0,136446.0,11588.0
1679064555451881,122243.0,136440.0,11584.0
1679064555461881,122247.0,136416.0,11593.0
1679064555471881,122229.0,136427.0,11563.0
1679064555480881,122199.0,136402.0,11589.0
1679064555491881,122229.0,136425.0,11580.0
1679064555501881,122219.0,136414.0,11586.0
1679064555511881,122236.0,136428.0,11583.0
1679064555522881,122223.0,136385.0,11577.0
1679064555530881,122222.0,136386.0,11605.0
1679064555541880,122205.0,136406.0,11553.0
1679064555550881,122245.0,136388.0,11578.0
1679064555561880,122244.0,136370.0,11579.0
1679064555570881,122237.0,136368.0,11587.0
1679064555581880,122205.0,136381.0,11574.0
1679064555590880,122222.0,136387.0,11581.0
1679064555601880,122221.0,136377.0,11572.0
1679064555610880,122232.0,136377.0,11578.0
1679064555623880,122210.0,136375.0,11569.0
1679064555630881,122220.0,136373.0,11586.0
1679064555641881,122237.0,136373.0,11575.0
1679064555650881,122216.0,136393.0,11582.0
1679064555661881,122185.0,136379.0,11593.0
1679064555670881,122166.0,136386.0,11591.0
1679064555681881,122185.0,136369.0,11587.0
1679064555690881,122179.0,136362.0,11564.0
1679064555701881,122213.0,136324.0,11586.0
1679064555711881,122222.0,136306.0,11582.0
1679064555721881,122211.0,136313.0,11586.0
1679064555730881,122217.0,136298.0,11586.0
1679064555741881,122218.0,136343.0,11587.0
1679064555751881,122213.0,136344.0,11588.0
1679064555761880,122198.0,136294.0,11586.0
1679064555770881,122212.0,136304.0,11587.0
1679064555781880,122213.0,136301.0,11590.0
1679064555791880,122211.0,136270.0,11581.0
1679064555801880,122216.0,136307.0,11588.0
1679064555810881,122233.0,136344.0,11581.0
1679064555821881,122258.0,136386.0,11591.0
1679064555831881,122295.0,136487.0,11594.0
1679064555841881,122291.0,136535.0,11594.0
1679064555850881,122288.0,136628.0,11584.0
1679064555860881,122281.0,136682.0,11582.0
1679064555871881,122257.0,136739.0,11539.0
1679064555880881,122202.0,136730.0,11579.0
1679064555890881,122181.0,136744.0,11567.0
1679064555900881,122179.0,136750.0,11573.0
1679064555911881,122170.0,136742.0,11568.0
1679064555920881,122162.0,136748.0,11567.0
1679064555930881,122166.0,136729.0,11566.0
1679064555940881,122209.0,136698.0,11545.0
1679064555951881,122213.0,136691.0,11536.0
1679064555961881,122213.0,136662.0,11548.0
1679064555970881,122208.0,136632.0,11572.0
1679064555980881,122159.0,136603.0,11577.0
1679064555991881,122176.0,136595.0,11587.0
1679064556001881,122175.0,136578.0,11576.0
1679064556011881,122229.0,136560.0,11578.0
1679064556020881,122249.0,136483.0,11583.0
1679064556031881,122230.0,136511.0,11583.0
1679064556041881,122232.0,136434.0,11571.0
1679064556050881,122224.0,136428.0,11562.0
1679064556060881,122234.0,136449.0,11546.0
1679064556070881,122236.0,136433.0,11567.0
1679064556081881,122240.0,136430.0,11599.0
1679064556090881,122183.0,136431.0,11584.0
1679064556101881,122201.0,136439.0,11596.0
1679064556110881,122217.0,136445.0,11606.0
1679064556121881,122242.0,136459.0,11598.0
1679064556130881,122257.0,136472.0,11587.0
1679064556140881,122217.0,136517.0,11592.0
1679064556150881,122257.0,136526.0,11570.0
1679064556161881,122260.0,136534.0,11588.0
1679064556170881,122273.0,136562.0,11601.0
1679064556181881,122285.0,136518.0,11585.0
1679064556190881,122286.0,136563.0,11582.0
1679064556201881,122286.0,136565.0,11584.0
1679064556211881,122298.0,136580.0,11592.0
1679064556220881,122316.0,136589.0,11598.0
1679064556230881,122324.0,136601.0,11553.0
1679064556240881,122298.0,136599.0,11598.0
1679064556251881,122302.0,136623.0,11600.0
1679064556260881,122305.0,136600.0,11583.0
1679064556271880,122341.0,136640.0,11588.0
1679064556280881,122349.0,136619.0,11586.0
1679064556291880,122358.0,136632.0,11605.0
1679064556300881,122361.0,136545.0,11585.0
1679064556310881,122369.0,136569.0,11594.0
1679064556321880,122391.0,136598.0,11590.0
1679064556331880,122392.0,136658.0,11600.0
1679064556340880,122349.0,136605.0,11605.0
1679064556350881,122407.0,136643.0,11593.0
1679064556361881,122419.0,136656.0,11583.0
1679064556371881,122371.0,136664.0,11601.0
1679064556380881,122381.0,136704.0,11595.0
1679064556390881,122410.0,136648.0,11596.0
1679064556401881,122424.0,136665.0,11598.0
1679064556411881,122427.0,136668.0,11586.0
1679064556420881,122429.0,136674.0,11606.0
1679064556430881,122440.0,136697.0,11597.0
1679064556440881,122444.0,136759.0,11561.0
1679064556451881,122461.0,136777.0,11557.0
1679064556460881,122450.0,136802.0,11563.0
1679064556470881,122466.0,136801.0,11567.0
1679064556480881,122469.0,136814.0,11563.0
1679064556491881,122471.0,136819.0,11563.0
1679064556500881,122450.0,136819.0,11575.0
1679064556510881,122489.0,136814.0,11559.0
1679064556520881,122465.0,136811.0,11573.0
1679064556531881,122482.0,136801.0,11569.0
1679064556540881,122484.0,136803.0,11594.0
1679064556550881,122480.0,136801.0,11597.0
1679064556560881,122485.0,136802.0,11596.0
1679064556571881,122486.0,136790.0,11611.0
1679064556581881,122488.0,136775.0,11606.0
1679064556589881,122497.0,136770.0,11595.0
1679064556600880,122497.0,136745.0,11596.0
1679064556610880,122497.0,136805.0,11604.0
1679064556621880,122510.0,136734.0,11579.0
1679064556630880,122495.0,136696.0,11606.0
1679064556640880,122488.0,136749.0,11607.0
1679064556650880,122493.0,136752.0,11623.0
1679064556661880,122477.0,136680.0,11619.0
1679064556670880,122488.0,136661.0,11603.0
1679064556680880,122493.0,136668.0,11614.0
1679064556690880,122491.0,136659.0,11614.0
1679064556700880,122493.0,136684.0,11626.0
1679064556711881,122506.0,136656.0,11635.0
1679064556720881,122500.0,136697.0,11606.0
1679064556730881,122489.0,136711.0,11601.0
1679064556740881,122477.0,136728.0,11611.0
1679064556751881,122483.0,136723.0,11591.0
1679064556760881,122486.0,136730.0,11609.0
1679064556771881,122517.0,136770.0,11614.0
1679064556780881,122523.0,136783.0,11626.0
1679064556790881,122540.0,136858.0,11626.0
1679064556800881,122570.0,136937.0,11620.0
1679064556810881,122593.0,137032.0,11596.0
1679064556820881,122574.0,137064.0,11595.0
1679064556831881,122560.0,137118.0,11610.0
1679064556840881,122542.0,137202.0,11599.0
1679064556850881,122503.0,137112.0,11602.0
1679064556860881,122488.0,137105.0,11611.0
1679064556871881,122464.0,137155.0,11604.0
1679064556880881,122472.0,137146.0,11602.0
1679064556891881,122457.0,137109.0,11595.0
1679064556900881,122456.0,137108.0,11597.0
1679064556910881,122475.0,137091.0,11574.0
1679064556920881,122461.0,137070.0,11578.0
1679064556932881,122471.0,137060.0,11600.0
1679064556940881,122472.0,137043.0,11639.0
1679064556950881,122433.0,137032.0,11607.0
1679064556961881,122486.0,136958.0,11605.0
1679064556970881,122495.0,136934.0,11595.0
1679064556980881,122499.0,136955.0,11620.0
1679064556990881,122515.0,136986.0,11595.0
1679064557000881,122513.0,136969.0,11606.0
1679064557010881,122509.0,136944.0,11574.0
1679064557020881,122453.0,136933.0,11613.0
1679064557032881,122469.0,136908.0,11610.0
1679064557040881,122474.0,136899.0,11631.0
1679064557050881,122465.0,136900.0,11615.0
1679064557060881,122461.0,136855.0,11619.0
1679064557071881,122468.0,136842.0,11622.0
1679064557080881,122502.0,136850.0,11623.0
1679064557090881,122503.0,136829.0,11617.0
1679064557100881,122522.0,136846.0,11613.0
1679064557110881,122522.0,136851.0,11597.0
1679064557121881,122530.0,136876.0,11594.0
1679064557129881,122519.0,136882.0,11554.0
1679064557140880,122520.0,136905.0,11619.0
1679064557150880,122494.0,136906.0,11625.0
1679064557161880,122504.0,136940.0,11625.0
1679064557169880,122529.0,136936.0,11628.0
1679064557180880,122518.0,136902.0,11618.0
1679064557190880,122519.0,136902.0,11611.0
1679064557201880,122518.0,136914.0,11612.0
1679064557210880,122517.0,136893.0,11614.0
1679064557220880,122523.0,136895.0,11614.0
1679064557230880,122519.0,136868.0,11614.0
1679064557241880,122536.0,136879.0,11615.0
1679064557250881,122532.0,136910.0,11625.0
1679064557260881,122519.0,136836.0,11624.0
1679064557270881,122554.0,136890.0,11621.0
1679064557280881,122534.0,136869.0,11598.0
1679064557290881,122545.0,136858.0,11600.0
1679064557299881,122543.0,136848.0,11601.0
1679064557310881,122554.0,136849.0,11573.0
1679064557320881,122540.0,136858.0,11591.0
1679064557331881,122559.0,136868.0,11586.0
1679064557339881,122536.0,136836.0,11573.0
1679064557350880,122541.0,136867.0,11621.0
1679064557360880,122547.0,136866.0,11627.0
1679064557371880,122550.0,136872.0,11628.0
1679064557379880,122557.0,136814.0,11628.0
1679064557390880,122567.0,136831.0,11630.0
1679064557400880,122561.0,136856.0,11636.0
1679064557411880,122563.0,136879.0,11622.0
1679064557419880,122572.0,136866.0,11632.0
1679064557430881,122564.0,136883.0,11633.0
1679064557440881,122592.0,136918.0,11636.0
1679064557451881,122570.0,136937.0,11628.0
1679064557460881,122582.0,136931.0,11628.0
1679064557470881,122598.0,136953.0,11623.0
1679064557480881,122607.0,136963.0,11628.0
1679064557490881,122600.0,136978.0,11630.0
1679064557501881,122606.0,137003.0,11620.0
1679064557509880,122602.0,137025.0,11618.0
1679064557520880,122604.0,137004.0,11620.0
1679064557530880,122601.0,136993.0,11620.0
1679064557541880,122596.0,137012.0,11619.0
1679064557549880,122574.0,136976.0,11639.0
1679064557560880,122590.0,137011.0,11616.0
1679064557570880,122585.0,137004.0,11623.0
1679064557581880,122589.0,137012.0,11613.0
1679064557589880,122593.0,136944.0,11626.0
1679064557600880,122594.0,136968.0,11617.0
1679064557610881,122595.0,136958.0,11640.0
1679064557620881,122614.0,137000.0,11628.0
1679064557630881,122591.0,137010.0,11607.0
1679064557639881,122576.0,137005.0,11635.0
1679064557650881,122576.0,137020.0,11627.0
1679064557660881,122562.0,137020.0,11635.0
1679064557670881,122571.0,137031.0,11629.0
1679064557680881,122612.0,137053.0,11625.0
1679064557689881,122625.0,137103.0,11627.0
1679064557700881,122644.0,137171.0,11630.0
1679064557710881,122664.0,137223.0,11607.0
1679064557720881,122677.0,137301.0,11618.0
1679064557729881,122670.0,137353.0,11613.0
1679064557740881,122649.0,137415.0,11573.0
1679064557750881,122620.0,137399.0,11612.0
1679064557760881,122603.0,137438.0,11609.0
1679064557769881,122589.0,137439.0,11582.0
1679064557780881,122583.0,137439.0,11570.0
1679064557790881,122577.0,137416.0,11571.0
1679064557800881,122576.0,137425.0,11549.0
1679064557809881,122538.0,137414.0,11605.0
1679064557820881,122548.0,137407.0,11593.0
1679064557830881,122548.0,137397.0,11594.0
1679064557840881,122568.0,137369.0,11600.0
1679064557850881,122574.0,137358.0,11553.0
1679064557860881,122577.0,137334.0,11599.0
1679064557870881,122603.0,137317.0,11606.0
1679064557879881,122588.0,137323.0,11608.0
1679064557890881,122615.0,137313.0,11571.0
1679064557899881,122603.0,137308.0,11566.0
1679064557910881,122616.0,137294.0,11582.0
1679064557919881,122584.0,137275.0,11592.0
1679064557930881,122604.0,137255.0,11588.0
1679064557939881,122576.0,137227.0,11603.0
1679064557950881,122626.0,137240.0,11595.0
1679064557960881,122623.0,137220.0,11597.0
1679064557970881,122629.0,137236.0,11599.0
1679064557979881,122574.0,137230.0,11609.0
1679064557990881,122633.0,137262.0,11607.0
1679064558000881,122629.0,137270.0,11612.0
1679064558010881,122631.0,137273.0,11609.0
1679064558020881,122647.0,137309.0,11611.0
1679064558030881,122652.0,137289.0,11591.0
1679064558040881,122654.0,137294.0,11611.0
1679064558049881,122633.0,137334.0,11601.0
1679064558060881,122626.0,137296.0,11622.0
1679064558070881,122638.0,137292.0,11610.0
1679064558081881,122642.0,137311.0,11618.0
1679064558089881,122634.0,137305.0,11604.0
1679064558099881,122646.0,137306.0,11591.0
1679064558110880,122644.0,137301.0,11583.0
1679064558120880,122646.0,137313.0,11586.0
1679064558129881,122607.0,137307.0,11599.0
1679064558139881,122607.0,137291.0,11612.0
1679064558150881,122627.0,137285.0,11584.0
1679064558160881,122604.0,137271.0,11620.0
1679064558170881,122619.0,137251.0,11607.0
1679064558179881,122621.0,137197.0,11605.0
1679064558190881,122612.0,137223.0,11601.0
1679064558200881,122619.0,137202.0,11594.0
1679064558210881,122620.0,137221.0,11602.0
1679064558220881,122583.0,137248.0,11624.0
1679064558229881,122585.0,137239.0,11613.0
1679064558240881,122602.0,137255.0,11610.0
1679064558250881,122618.0,137228.0,11596.0
1679064558260881,122582.0,137213.0,11594.0
1679064558269881,122590.0,137235.0,11608.0
1679064558280881,122620.0,137247.0,11605.0
1679064558290881,122623.0,137244.0,11594.0
1679064558300881,122612.0,137252.0,11595.0
1679064558309881,122626.0,137256.0,11613.0
1679064558320881,122614.0,137239.0,11610.0
1679064558330881,122613.0,137236.0,11608.0
1679064558340881,122626.0,137244.0,11610.0
1679064558349881,122620.0,137234.0,11608.0
1679064558360881,122603.0,137229.0,11609.0
1679064558370881,122609.0,137209.0,11604.0
1679064558379881,122619.0,137190.0,11605.0
1679064558390881,122618.0,137201.0,11607.0
1679064558399881,122566.0,137229.0,11619.0
1679064558410881,122583.0,137243.0,11604.0
1679064558419881,122578.0,137231.0,11612.0
1679064558430881,122616.0,137234.0,11608.0
1679064558439881,122608.0,137205.0,11611.0
1679064558450881,122613.0,137229.0,11573.0
1679064558460881,122596.0,137191.0,11608.0
1679064558470881,122595.0,137210.0,11603.0
1679064558479881,122614.0,137250.0,11600.0
1679064558490881,122616.0,137274.0,11602.0
1679064558500881,122633.0,137337.0,11604.0
1679064558510881,122637.0,137409.0,11601.0
1679064558519881,122644.0,137430.0,11590.0
1679064558529881,122653.0,137513.0,11605.0
1679064558540881,122650.0,137542.0,11592.0
1679064558550881,122603.0,137576.0,11571.0
1679064558560881,122581.0,137562.0,11592.0
1679064558570881,122557.0,137599.0,11582.0
1679064558580881,122545.0,137523.0,11576.0
1679064558589881,122537.0,137514.0,11568.0
1679064558600881,122545.0,137496.0,11575.0
1679064558610881,122544.0,137478.0,11576.0
1679064558620881,122545.0,137485.0,11590.0
1679064558629881,122552.0,137459.0,11579.0
1679064558641881,122550.0,137452.0,11588.0
1679064558649881,122560.0,137427.0,11578.0
1679064558660881,122557.0,137454.0,11590.0
1679064558669881,122568.0,137379.0,11586.0
1679064558680881,122568.0,137393.0,11583.0
1679064558690881,122589.0,137346.0,11598.0
1679064558699881,122573.0,137335.0,11595.0
1679064558710881,122583.0,137339.0,11577.0
1679064558719881,122579.0,137316.0,11568.0
1679064558730881,122578.0,137305.0,11568.0
1679064558741881,122554.0,137278.0,11562.0
1679064558750881,122558.0,137260.0,11608.0
1679064558759881,122566.0,137251.0,11589.0
1679064558770881,122586.0,137252.0,11595.0
1679064558779881,122579.0,137253.0,11575.0
1679064558790881,122559.0,137271.0,11602.0
1679064558799881,122554.0,137279.0,11609.0
1679064558810881,122563.0,137310.0,11605.0
1679064558819881,122588.0,137320.0,11596.0
1679064558830881,122591.0,137333.0,11601.0
1679064558839881,122594.0,137329.0,11599.0
1679064558850881,122582.0,137329.0,11602.0
1679064558860881,122584.0,137298.0,11604.0
1679064558870881,122568.0,137297.0,11594.0
1679064558879881,122569.0,137341.0,11596.0
1679064558889881,122578.0,137325.0,11566.0
1679064558900881,122584.0,137323.0,11569.0
1679064558909881,122558.0,137314.0,11573.0
1679064558919881,122573.0,137337.0,11567.0
1679064558929881,122581.0,137303.0,11580.0
1679064558940881,122565.0,137241.0,11602.0
1679064558949881,122572.0,137230.0,11599.0
1679064558960881,122565.0,137288.0,11607.0
1679064558969881,122557.0,137270.0,11607.0
1679064558980881,122557.0,137264.0,11602.0
1679064558989881,122557.0,137244.0,11599.0
1679064559000881,122554.0,137246.0,11601.0
1679064559009881,122540.0,137241.0,11598.0
1679064559020881,122540.0,137234.0,11602.0
1679064559029881,122550.0,137216.0,11599.0
1679064559040881,122540.0,137230.0,11607.0
1679064559049881,122535.0,137205.0,11600.0
1679064559060881,122509.0,137214.0,11605.0
1679064559069881,122550.0,137185.0,11594.0
1679064559080881,122539.0,137194.0,11602.0
1679064559089881,122540.0,137200.0,11595.0
1679064559100881,122533.0,137177.0,11604.0
1679064559110881,122531.0,137199.0,11594.0
1679064559119881,122547.0,137186.0,11594.0
1679064559129881,122541.0,137167.0,11572.0
1679064559139881,122530.0,137166.0,11596.0
1679064559149881,122538.0,137171.0,11585.0
1679064559160881,122517.0,137170.0,11607.0
1679064559169881,122526.0,137177.0,11598.0
1679064559179881,122539.0,137161.0,11561.0
1679064559189881,122539.0,137172.0,11568.0
1679064559199881,122534.0,137156.0,11571.0
1679064559210881,122537.0,137164.0,11568.0
1679064559219881,122536.0,137152.0,11580.0
1679064559229881,122547.0,137177.0,11570.0
1679064559238881,122564.0,137218.0,11576.0
1679064559249881,122546.0,137268.0,11596.0
1679064559258881,122555.0,137330.0,11581.0
1679064559268881,122582.0,137398.0,11568.0
1679064559278881,122548.0,137428.0,11576.0
1679064559289881,122561.0,137478.0,11559.0
1679064559298881,122502.0,137498.0,11564.0
1679064559308881,122493.0,137502.0,11559.0
1679064559318881,122469.0,137512.0,11555.0
1679064559329881,122473.0,137528.0,11541.0
1679064559338881,122429.0,137521.0,11552.0
1679064559348881,122454.0,137515.0,11541.0
1679064559358881,122466.0,137506.0,11571.0
1679064559369881,122468.0,137467.0,11572.0
1679064559377880,122474.0,137454.0,11548.0
1679064559388880,122466.0,137449.0,11548.0
1679064559398880,122468.0,137435.0,11564.0
1679064559410881,122484.0,137431.0,11547.0
1679064559419881,122460.0,137409.0,11560.0
1679064559429881,122509.0,137412.0,11579.0
1679064559439881,122507.0,137397.0,11581.0
1679064559450881,122508.0,137341.0,11573.0
1679064559460881,122508.0,137359.0,11575.0
1679064559469881,122501.0,137335.0,11591.0
1679064559479881,122507.0,137296.0,11566.0
1679064559489881,122511.0,137276.0,11575.0
1679064559500881,122488.0,137261.0,11575.0
1679064559509881,122441.0,137266.0,11596.0
1679064559519881,122483.0,137257.0,11604.0
1679064559529881,122477.0,137248.0,11598.0
1679064559540881,122476.0,137272.0,11603.0
1679064559549881,122480.0,137280.0,11595.0
1679064559559881,122504.0,137304.0,11555.0
1679064559569881,122473.0,137329.0,11596.0
1679064559580881,122499.0,137314.0,11607.0
1679064559589881,122494.0,137326.0,11599.0
1679064559599881,122516.0,137345.0,11596.0
1679064559609881,122539.0,137321.0,11587.0
1679064559620881,122537.0,137324.0,11591.0
1679064559629881,122543.0,137317.0,11599.0
1679064559640881,122544.0,137308.0,11605.0
1679064559649881,122553.0,137317.0,11598.0
1679064559659881,122557.0,137357.0,11581.0
1679064559669881,122530.0,137335.0,11581.0
1679064559679881,122532.0,137340.0,11601.0
1679064559689881,122548.0,137344.0,11595.0
1679064559699881,122544.0,137347.0,11590.0
1679064559710881,122565.0,137352.0,11594.0
1679064559719881,122561.0,137367.0,11585.0
1679064559729881,122558.0,137373.0,11591.0
1679064559739881,122569.0,137349.0,11589.0
1679064559750881,122565.0,137351.0,11597.0
1679064559759881,122565.0,137358.0,11592.0
1679064559769881,122554.0,137318.0,11608.0
1679064559779881,122569.0,137336.0,11596.0
1679064559790881,122574.0,137292.0,11609.0
1679064559799881,122582.0,137289.0,11604.0
1679064559809881,122570.0,137334.0,11601.0
1679064559819881,122572.0,137320.0,11601.0
1679064559829881,122582.0,137350.0,11606.0
1679064559839881,122557.0,137322.0,11612.0
1679064559849881,122543.0,137322.0,11602.0
1679064559859881,122562.0,137351.0,11616.0
1679064559869881,122585.0,137331.0,11604.0
1679064559879881,122592.0,137345.0,11614.0
1679064559889881,122595.0,137355.0,11606.0
1679064559899881,122591.0,137335.0,11614.0
1679064559909881,122589.0,137353.0,11605.0
1679064559919881,122591.0,137357.0,11609.0
1679064559929881,122594.0,137352.0,11609.0
1679064559939881,122597.0,137350.0,11597.0
1679064559949881,122590.0,137358.0,11600.0
1679064559960881,122591.0,137361.0,11597.0
1679064559969881,122601.0,137365.0,11599.0
1679064559979881,122592.0,137315.0,11601.0
1679064559989881,122599.0,137364.0,11611.0
1679064560000881,122593.0,137371.0,11615.0
1679064560009881,122602.0,137360.0,11602.0
1679064560019881,122579.0,137359.0,11593.0
1679064560029881,122593.0,137361.0,11579.0
1679064560039881,122602.0,137376.0,11581.0
1679064560049881,122584.0,137366.0,11606.0
1679064560059881,122563.0,137378.0,11615.0
1679064560069881,122606.0,137360.0,11578.0
1679064560079881,122624.0,137390.0,11588.0
1679064560089881,122643.0,137445.0,11577.0
1679064560099881,122649.0,137492.0,11588.0
1679064560109881,122648.0,137564.0,11583.0
1679064560119881,122656.0,137634.0,11602.0
1679064560129881,122650.0,137669.0,11586.0
1679064560139881,122564.0,137709.0,11604.0
1679064560149881,122591.0,137753.0,11589.0
1679064560159881,122545.0,137751.0,11574.0
1679064560169881,122521.0,137746.0,11575.0
1679064560179881,122499.0,137750.0,11565.0
1679064560189881,122499.0,137740.0,11573.0
1679064560199881,122497.0,137716.0,11577.0
1679064560210881,122514.0,137703.0,11577.0
1679064560219881,122512.0,137677.0,11575.0
1679064560229881,122524.0,137654.0,11579.0
1679064560239881,122528.0,137647.0,11581.0
1679064560250881,122524.0,137633.0,11581.0
1679064560259881,122553.0,137613.0,11581.0
1679064560269881,122546.0,137556.0,11583.0
1679064560279881,122552.0,137527.0,11586.0
1679064560290881,122541.0,137567.0,11586.0
1679064560299881,122557.0,137571.0,11589.0
1679064560309881,122552.0,137531.0,11605.0
1679064560319881,122563.0,137503.0,11569.0
1679064560329881,122514.0,137478.0,11594.0
1679064560339881,122515.0,137465.0,11603.0
1679064560348881,122516.0,137454.0,11601.0
1679064560359881,122523.0,137439.0,11600.0
1679064560369881,122561.0,137422.0,11582.0
1679064560379881,122571.0,137430.0,11579.0
1679064560388881,122563.0,137421.0,11585.0
1679064560399881,122577.0,137434.0,11577.0
1679064560409881,122574.0,137464.0,11594.0
1679064560419881,122581.0,137458.0,11581.0
1679064560428881,122577.0,137462.0,11594.0
1679064560439881,122581.0,137482.0,11585.0
1679064560449881,122586.0,137479.0,11600.0
1679064560459881,122586.0,137472.0,11555.0
1679064560469881,122562.0,137470.0,11605.0
1679064560479881,122563.0,137448.0,11602.0
1679064560490881,122563.0,137446.0,11595.0
1679064560499881,122574.0,137466.0,11592.0
1679064560508881,122530.0,137458.0,11599.0
1679064560519881,122540.0,137435.0,11607.0
1679064560529881,122575.0,137460.0,11585.0
1679064560540881,122561.0,137461.0,11598.0
1679064560548881,122563.0,137438.0,11595.0
1679064560559881,122560.0,137380.0,11612.0
1679064560569881,122558.0,137418.0,11596.0
1679064560579881,122566.0,137445.0,11601.0
1679064560588881,122564.0,137405.0,11595.0
1679064560599881,122558.0,137389.0,11602.0
1679064560609881,122553.0,137401.0,11600.0
1679064560619881,122549.0,137370.0,11606.0
1679064560628881,122555.0,137358.0,11603.0
1679064560639881,122551.0,137356.0,11603.0
1679064560649881,122564.0,137359.0,11606.0
1679064560659881,122561.0,137362.0,11613.0
1679064560669881,122601.0,137375.0,11589.0
1679064560679881,122555.0,137354.0,11600.0
1679064560689881,122556.0,137354.0,11610.0
1679064560699881,122543.0,137332.0,11605.0
1679064560709881,122551.0,137341.0,11572.0
1679064560718881,122551.0,137339.0,11583.0
1679064560729881,122564.0,137341.0,11575.0
1679064560739881,122539.0,137340.0,11571.0
1679064560749881,122560.0,137332.0,11571.0
1679064560759881,122554.0,137340.0,11574.0
1679064560769881,122574.0,137386.0,11600.0
1679064560778881,122553.0,137318.0,11610.0
1679064560789881,122551.0,137318.0,11595.0
1679064560798881,122560.0,137322.0,11612.0
1679064560809881,122575.0,137315.0,11609.0
1679064560819881,122562.0,137312.0,11586.0
1679064560829881,122554.0,137325.0,11589.0
1679064560838881,122547.0,137325.0,11596.0
1679064560849881,122566.0,137332.0,11591.0
1679064560860881,122525.0,137315.0,11588.0
1679064560869881,122564.0,137338.0,11646.0
1679064560878881,122547.0,137311.0,11603.0
1679064560889881,122521.0,137312.0,11606.0
1679064560898881,122508.0,137308.0,11617.0
1679064560909881,122520.0,137306.0,11621.0
1679064560919881,122554.0,137294.0,11613.0
1679064560929881,122557.0,137300.0,11609.0
1679064560939881,122547.0,137261.0,11601.0
1679064560949881,122539.0,137250.0,11613.0
1679064560961881,122534.0,137261.0,11612.0
1679064560969881,122562.0,137240.0,11636.0
1679064560978881,122564.0,137244.0,11616.0
1679064560989881,122546.0,137276.0,11615.0
1679064560999881,122552.0,137235.0,11601.0
1679064561009881,122528.0,137247.0,11611.0
1679064561019881,122539.0,137233.0,11610.0
1679064561029881,122527.0,137228.0,11615.0
1679064561039881,122534.0,137227.0,11608.0
1679064561048881,122537.0,137232.0,11596.0
1679064561059881,122546.0,137228.0,11594.0
1679064561068881,122489.0,137234.0,11613.0
1679064561079881,122551.0,137268.0,11579.0
1679064561088881,122557.0,137321.0,11612.0
1679064561099881,122573.0,137403.0,11611.0
1679064561109881,122591.0,137478.0,11611.0
1679064561119881,122569.0,137551.0,11608.0
1679064561128881,122552.0,137574.0,11602.0
1679064561139881,122523.0,137615.0,11596.0
1679064561148881,122478.0,137638.0,11584.0
1679064561159881,122450.0,137619.0,11578.0
1679064561169881,122421.0,137638.0,11580.0
1679064561179881,122368.0,137590.0,11586.0
1679064561188881,122358.0,137585.0,11573.0
1679064561199881,122366.0,137567.0,11579.0
1679064561209881,122361.0,137558.0,11578.0
1679064561219881,122420.0,137535.0,11564.0
1679064561229881,122425.0,137461.0,11580.0
1679064561238881,122432.0,137444.0,11583.0
1679064561249881,122444.0,137452.0,11581.0
1679064561258881,122456.0,137450.0,11575.0
1679064561268881,122469.0,137438.0,11574.0
1679064561279881,122452.0,137385.0,11597.0
1679064561289881,122461.0,137369.0,11596.0
1679064561299881,122456.0,137349.0,11594.0
1679064561308881,122467.0,137366.0,11606.0
1679064561318881,122463.0,137348.0,11593.0
1679064561329881,122470.0,137344.0,11585.0
1679064561338881,122480.0,137300.0,11590.0
1679064561348881,122472.0,137295.0,11593.0
1679064561358881,122461.0,137283.0,11590.0
1679064561369881,122456.0,137283.0,11590.0
1679064561379881,122469.0,137237.0,11601.0
1679064561388881,122468.0,137237.0,11597.0
1679064561398881,122478.0,137253.0,11605.0
1679064561409881,122485.0,137284.0,11606.0
1679064561419881,122479.0,137280.0,11575.0
1679064561428881,122497.0,137317.0,11555.0
1679064561438881,122470.0,137332.0,11565.0
1679064561449881,122484.0,137314.0,11552.0
1679064561459881,122426.0,137335.0,11604.0
1679064561468881,122421.0,137330.0,11604.0
1679064561478881,122474.0,137318.0,11578.0
1679064561489881,122483.0,137315.0,11567.0
1679064561499881,122471.0,137307.0,11575.0
1679064561508881,122469.0,137285.0,11555.0
1679064561518881,122462.0,137289.0,11574.0
1679064561529881,122470.0,137274.0,11557.0
1679064561539881,122462.0,137270.0,11590.0
1679064561548881,122468.0,137281.0,11553.0
1679064561558881,122445.0,137269.0,11573.0
1679064561569881,122459.0,137250.0,11555.0
1679064561578881,122454.0,137231.0,11599.0
1679064561588881,122443.0,137242.0,11576.0
1679064561598881,122427.0,137241.0,11576.0
1679064561609881,122443.0,137211.0,11569.0
1679064561618881,122423.0,137210.0,11570.0
1679064561628881,122435.0,137202.0,11561.0
1679064561638881,122417.0,137193.0,11588.0
1679064561649881,122410.0,137193.0,11590.0
1679064561658881,122411.0,137196.0,11588.0
1679064561669881,122422.0,137177.0,11595.0
1679064561678881,122419.0,137164.0,11567.0
1679064561689881,122423.0,137160.0,11561.0
1679064561698881,122405.0,137160.0,11568.0
1679064561709881,122430.0,137148.0,11564.0
1679064561718881,122411.0,137157.0,11562.0
1679064561729881,122410.0,137139.0,11604.0
1679064561738881,122356.0,137143.0,11605.0
1679064561749881,122363.0,137133.0,11612.0
1679064561758881,122367.0,137135.0,11596.0
1679064561769881,122416.0,137144.0,11599.0
1679064561778881,122343.0,137115.0,11607.0
1679064561789881,122393.0,137147.0,11593.0
1679064561798881,122377.0,137133.0,11613.0
1679064561808881,122375.0,137167.0,11603.0
1679064561818881,122362.0,137126.0,11603.0
1679064561829881,122370.0,137137.0,11601.0
1679064561838881,122357.0,137128.0,11600.0
1679064561848881,122376.0,137124.0,11604.0
1679064561858881,122355.0,137107.0,11601.0
1679064561869881,122368.0,137120.0,11611.0
1679064561878881,122409.0,137097.0,11567.0
1679064561888881,122404.0,137110.0,11561.0
1679064561898881,122391.0,137087.0,11566.0
1679064561909881,122404.0,137096.0,11562.0
1679064561918881,122401.0,137085.0,11576.0
1679064561928881,122397.0,137099.0,11552.0
1679064561938881,122391.0,137082.0,11577.0
1679064561949881,122369.0,137080.0,11587.0
1679064561959881,122376.0,137086.0,11595.0
1679064561968881,122378.0,137071.0,11599.0
1679064561978881,122423.0,137070.0,11598.0
1679064561989881,122336.0,137051.0,11602.0
1679064561999881,122362.0,137001.0,11593.0
1679064562008881,122370.0,137015.0,11595.0
1679064562018881,122361.0,137002.0,11588.0
1679064562029881,122373.0,137016.0,11599.0
1679064562039881,122353.0,137010.0,11592.0
1679064562048881,122370.0,137000.0,11591.0
1679064562058881,122357.0,136958.0,11589.0
1679064562069881,122356.0,136960.0,11601.0
1679064562078881,122404.0,137037.0,11589.0
1679064562088881,122359.0,137027.0,11593.0
1679064562098881,122373.0,137024.0,11606.0
1679064562109881,122359.0,137046.0,11605.0
1679064562119881,122383.0,137070.0,11594.0
1679064562128881,122395.0,137111.0,11597.0
1679064562138881,122389.0,137184.0,11599.0
1679064562148881,122418.0,137259.0,11575.0
1679064562159881,122404.0,137331.0,11568.0
1679064562169881,122372.0,137367.0,11561.0
1679064562178881,122356.0,137407.0,11580.0
1679064562189881,122300.0,137407.0,11564.0
1679064562198881,122280.0,137402.0,11571.0
1679064562209881,122250.0,137386.0,11561.0
1679064562218881,122251.0,137375.0,11562.0
1679064562229881,122234.0,137354.0,11568.0
1679064562238881,122241.0,137344.0,11558.0
1679064562249881,122266.0,137327.0,11577.0
1679064562258881,122262.0,137307.0,11562.0
1679064562269881,122280.0,137297.0,11566.0
1679064562278881,122287.0,137327.0,11560.0
1679064562289881,122285.0,137222.0,11555.0
1679064562298881,122307.0,137206.0,11576.0
1679064562308881,122298.0,137246.0,11572.0
1679064562318881,122319.0,137192.0,11564.0
1679064562328881,122315.0,137194.0,11585.0
1679064562338881,122313.0,137168.0,11559.0
1679064562348881,122317.0,137156.0,11563.0
1679064562358881,122313.0,137130.0,11571.0
1679064562369881,122305.0,137102.0,11579.0
1679064562378881,122320.0,137149.0,11565.0
1679064562388881,122295.0,137057.0,11589.0
1679064562398881,122304.0,137030.0,11586.0
1679064562409881,122300.0,137048.0,11593.0
1679064562419881,122308.0,137054.0,11588.0
1679064562428881,122305.0,137063.0,11592.0
1679064562438881,122315.0,137074.0,11595.0
1679064562449881,122312.0,137098.0,11586.0
1679064562459881,122319.0,137106.0,11589.0
1679064562470881,122311.0,137116.0,11592.0
1679064562478881,122311.0,137126.0,11582.0
1679064562489881,122314.0,137129.0,11583.0
1679064562499881,122317.0,137130.0,11584.0
1679064562507881,122319.0,137134.0,11577.0
1679064562518880,122318.0,137113.0,11569.0
1679064562528880,122316.0,137123.0,11575.0
1679064562539880,122314.0,137109.0,11559.0
1679064562547880,122308.0,137118.0,11576.0
1679064562558880,122311.0,137092.0,11550.0
1679064562568880,122295.0,137079.0,11572.0
1679064562578880,122299.0,137075.0,11557.0
1679064562588880,122282.0,137047.0,11588.0
1679064562598880,122295.0,137064.0,11586.0
1679064562609880,122270.0,137039.0,11585.0
1679064562618880,122277.0,137041.0,11580.0
1679064562628880,122289.0,137028.0,11577.0
1679064562638880,122288.0,137017.0,11558.0
1679064562648881,122272.0,137000.0,11580.0
1679064562659881,122280.0,136999.0,11563.0
1679064562668881,122233.0,137002.0,11579.0
1679064562678881,122246.0,137003.0,11585.0
1679064562688881,122262.0,136982.0,11573.0
1679064562699881,122216.0,136978.0,11581.0
1679064562708881,122195.0,136966.0,11589.0
1679064562718881,122262.0,136985.0,11588.0
1679064562728881,122260.0,136967.0,11584.0
1679064562739881,122259.0,136953.0,11590.0
1679064562748881,122244.0,136898.0,11576.0
1679064562758881,122255.0,136898.0,11579.0
1679064562768881,122250.0,136890.0,11568.0
1679064562779881,122248.0,136889.0,11573.0
1679064562788881,122252.0,136948.0,11575.0
1679064562798881,122251.0,136951.0,11574.0
1679064562808881,122248.0,136924.0,11565.0
1679064562819881,122229.0,136894.0,11574.0
1679064562828881,122222.0,136884.0,11578.0
1679064562837881,122241.0,136921.0,11575.0
1679064562848881,122241.0,136909.0,11581.0
1679064562858881,122253.0,136913.0,11577.0
1679064562869881,122208.0,136896.0,11579.0
1679064562878881,122208.0,136906.0,11595.0
1679064562888881,122232.0,136905.0,11562.0
1679064562898881,122231.0,136851.0,11585.0
1679064562909881,122220.0,136833.0,11586.0
1679064562918881,122225.0,136848.0,11583.0
1679064562928881,122230.0,136862.0,11583.0
1679064562938881,122220.0,136841.0,11578.0
1679064562948881,122222.0,136848.0,11583.0
1679064562959880,122218.0,136846.0,11557.0
1679064562967880,122215.0,136845.0,11566.0
1679064562978880,122222.0,136843.0,11563.0
1679064562989880,122203.0,136869.0,11585.0
1679064562998880,122206.0,136845.0,11575.0
1679064563007881,122207.0,136827.0,11581.0
1679064563018881,122218.0,136820.0,11559.0
1679064563028881,122140.0,136856.0,11581.0
1679064563039881,122164.0,136870.0,11592.0
1679064563047881,122179.0,136913.0,11584.0
1679064563058880,122198.0,136996.0,11591.0
1679064563068880,122211.0,137078.0,11588.0
1679064563078880,122230.0,137131.0,11577.0
1679064563087880,122225.0,137173.0,11545.0
1679064563098880,122188.0,137209.0,11541.0
1679064563108880,122117.0,137202.0,11563.0
1679064563118880,122104.0,137207.0,11560.0
1679064563128880,122073.0,137198.0,11556.0
1679064563138880,122075.0,137200.0,11553.0
1679064563148880,122060.0,137201.0,11549.0
1679064563158880,122043.0,137161.0,11554.0
1679064563168880,122048.0,137148.0,11554.0
1679064563178880,122065.0,137141.0,11557.0
1679064563188881,122114.0,137119.0,11562.0
1679064563199881,122087.0,137108.0,11552.0
1679064563208881,122123.0,137074.0,11548.0
1679064563217881,122127.0,137028.0,11564.0
1679064563228881,122159.0,137041.0,11549.0
1679064563238881,122165.0,137037.0,11559.0
1679064563248881,122166.0,137008.0,11559.0
1679064563257881,122131.0,137008.0,11549.0
1679064563268881,122142.0,136974.0,11540.0
1679064563278881,122135.0,136981.0,11561.0
1679064563288881,122163.0,136918.0,11531.0
1679064563297881,122164.0,136952.0,11542.0
1679064563308881,122163.0,136929.0,11539.0
1679064563318881,122151.0,136923.0,11564.0
1679064563328881,122161.0,136907.0,11567.0
1679064563337881,122146.0,136926.0,11575.0
1679064563348881,122166.0,136927.0,11569.0
1679064563358881,122165.0,136940.0,11561.0
1679064563369881,122174.0,136950.0,11569.0
1679064563378881,122186.0,136960.0,11573.0
1679064563388881,122194.0,136951.0,11568.0
1679064563398881,122197.0,136988.0,11575.0
1679064563408881,122191.0,136994.0,11570.0
1679064563418881,122199.0,136965.0,11569.0
1679064563427881,122197.0,136996.0,11567.0
1679064563438881,122174.0,137001.0,11580.0
1679064563448881,122173.0,137023.0,11578.0
1679064563459881,122171.0,137011.0,11575.0
1679064563467881,122212.0,137032.0,11581.0
1679064563478881,122213.0,137039.0,11566.0
1679064563488880,122206.0,137039.0,11564.0
1679064563498880,122175.0,137017.0,11575.0
1679064563507881,122167.0,137013.0,11576.0
1679064563518880,122184.0,137019.0,11574.0
1679064563528880,122217.0,137015.0,11570.0
1679064563539880,122221.0,136996.0,11584.0
1679064563547881,122210.0,137019.0,11577.0
1679064563558881,122202.0,137029.0,11568.0
1679064563568881,122224.0,137018.0,11572.0
1679064563579881,122214.0,137014.0,11580.0
1679064563587880,122240.0,137055.0,11564.0
1679064563598880,122223.0,137032.0,11580.0
1679064563608880,122233.0,137011.0,11576.0
1679064563619880,122222.0,137011.0,11580.0
1679064563628880,122235.0,137021.0,11578.0
1679064563637880,122221.0,137013.0,11583.0
1679064563648880,122239.0,137022.0,11551.0
1679064563658880,122244.0,137014.0,11540.0
1679064563669880,122247.0,137017.0,11533.0
1679064563679880,122232.0,137027.0,11572.0
1679064563688880,122245.0,137055.0,11609.0
1679064563698880,122220.0,137022.0,11561.0
1679064563708880,122222.0,137028.0,11579.0
1679064563717880,122207.0,137019.0,11585.0
1679064563728881,122209.0,137025.0,11585.0
1679064563738881,122202.0,137035.0,11582.0
1679064563749881,122232.0,137007.0,11581.0
1679064563757881,122231.0,137005.0,11583.0
1679064563768880,122236.0,137026.0,11585.0
1679064563780881,122248.0,137023.0,11579.0
1679064563788880,122242.0,137028.0,11591.0
1679064563797881,122248.0,137019.0,11558.0
1679064563807881,122254.0,137038.0,11554.0
1679064563818880,122254.0,137039.0,11547.0
1679064563828880,122207.0,137021.0,11577.0
1679064563838880,122219.0,137027.0,11589.0
1679064563847880,122219.0,137018.0,11584.0
1679064563858880,122224.0,137034.0,11565.0
1679064563868880,122214.0,137025.0,11577.0
1679064563879880,122236.0,137036.0,11564.0
1679064563887880,122232.0,137039.0,11576.0
1679064563898880,122215.0,137025.0,11564.0
1679064563908881,122219.0,137011.0,11577.0
1679064563919881,122230.0,137034.0,11569.0
1679064563927881,122234.0,136988.0,11564.0
1679064563937881,122238.0,136991.0,11566.0
1679064563948881,122254.0,137016.0,11572.0
1679064563958881,122241.0,136996.0,11568.0
1679064563967881,122247.0,136999.0,11573.0
1679064563977881,122233.0,136979.0,11568.0
1679064563988880,122239.0,136987.0,11558.0
1679064563999880,122230.0,136951.0,11587.0
1679064564007880,122223.0,136978.0,11569.0
1679064564018880,122231.0,136975.0,11582.0
1679064564028880,122238.0,136986.0,11571.0
1679064564039880,122240.0,137012.0,11577.0
1679064564047880,122270.0,137060.0,11579.0
1679064564057880,122283.0,137135.0,11577.0
1679064564068880,122286.0,137232.0,11574.0
1679064564078880,122278.0,137288.0,11560.0
1679064564087881,122269.0,137322.0,11550.0
1679064564097881,122221.0,137327.0,11561.0
1679064564108881,122203.0,137365.0,11533.0
1679064564118881,122162.0,137349.0,11533.0
1679064564128881,122138.0,137354.0,11510.0
1679064564137881,122118.0,137345.0,11525.0
1679064564148881,122119.0,137339.0,11499.0
1679064564158881,122112.0,137318.0,11536.0
1679064564168881,122094.0,137300.0,11553.0
1679064564177881,122102.0,137279.0,11552.0
1679064564188881,122115.0,137251.0,11554.0
1679064564198881,122085.0,137245.0,11557.0
1679064564208881,122095.0,137227.0,11559.0
1679064564217881,122141.0,137209.0,11555.0
1679064564228881,122165.0,137185.0,11551.0
1679064564238880,122144.0,137157.0,11556.0
1679064564248880,122148.0,137153.0,11553.0
1679064564257881,122140.0,137099.0,11546.0
1679064564268881,122142.0,137103.0,11545.0
1679064564278881,122150.0,137088.0,11560.0
1679064564288881,122162.0,137061.0,11544.0
1679064564297881,122156.0,137040.0,11561.0
1679064564308881,122139.0,137017.0,11565.0
1679064564318881,122144.0,137009.0,11553.0
1679064564328881,122137.0,136996.0,11569.0
1679064564337881,122149.0,136974.0,11530.0
1679064564347881,122147.0,136985.0,11536.0
1679064564358881,122147.0,136978.0,11524.0
1679064564368881,122143.0,136980.0,11535.0
1679064564378881,122124.0,137003.0,11538.0
1679064564387881,122128.0,137012.0,11545.0
1679064564398881,122147.0,136999.0,11554.0
1679064564407881,122150.0,137034.0,11573.0
1679064564418881,122156.0,137030.0,11541.0
1679064564427881,122132.0,137032.0,11544.0
1679064564438881,122136.0,137046.0,11537.0
1679064564448881,122135.0,137024.0,11545.0
1679064564458881,122109.0,137020.0,11552.0
1679064564467881,122129.0,137026.0,11543.0
1679064564478881,122128.0,137025.0,11555.0
1679064564487881,122138.0,137010.0,11558.0
1679064564498881,122094.0,136991.0,11566.0
1679064564507881,122081.0,136991.0,11561.0
1679064564518881,122118.0,136985.0,11565.0
1679064564528881,122120.0,136972.0,11562.0
1679064564538881,122116.0,136969.0,11557.0
1679064564547881,122123.0,136953.0,11564.0
1679064564558881,122132.0,136962.0,11557.0
1679064564568881,122137.0,136974.0,11558.0
1679064564577881,122128.0,136945.0,11546.0
1679064564587881,122129.0,136965.0,11525.0
1679064564598881,122120.0,136933.0,11558.0
1679064564608881,122116.0,136934.0,11550.0
1679064564618881,122124.0,136929.0,11569.0
1679064564628881,122128.0,136924.0,11560.0
1679064564637881,122118.0,136920.0,11519.0
1679064564648881,122112.0,136926.0,11558.0
1679064564658881,122108.0,136925.0,11549.0
1679064564668881,122123.0,136930.0,11560.0
1679064564677881,122118.0,136912.0,11560.0
1679064564688881,122107.0,136911.0,11570.0
1679064564698881,122126.0,136850.0,11567.0
1679064564708881,122125.0,136868.0,11564.0
1679064564717881,122116.0,136876.0,11556.0
1679064564727881,122127.0,136881.0,11565.0
1679064564738881,122126.0,136886.0,11546.0
1679064564747881,122117.0,136891.0,11547.0
1679064564757881,122122.0,136895.0,11535.0
1679064564767881,122125.0,136881.0,11550.0
1679064564778881,122122.0,136870.0,11531.0
1679064564788881,122127.0,136903.0,11537.0
1679064564797881,122129.0,136893.0,11564.0
1679064564807881,122102.0,136867.0,11570.0
1679064564818881,122076.0,136868.0,11551.0
1679064564828881,122105.0,136892.0,11554.0
1679064564837881,122095.0,136881.0,11555.0
1679064564847881,122090.0,136819.0,11558.0
1679064564858881,122096.0,136822.0,11563.0
1679064564868881,122070.0,136791.0,11548.0
1679064564878881,122050.0,136859.0,11573.0
1679064564888881,122064.0,136846.0,11572.0
1679064564897881,122054.0,136826.0,11561.0
1679064564908881,122087.0,136814.0,11529.0
1679064564918881,122078.0,136824.0,11539.0
1679064564927881,122084.0,136808.0,11527.0
1679064564937881,122062.0,136793.0,11545.0
1679064564948881,122087.0,136798.0,11538.0
1679064564957881,122078.0,136786.0,11537.0
1679064564967881,122074.0,136796.0,11538.0
1679064564977881,122045.0,136782.0,11547.0
1679064564989881,122062.0,136781.0,11536.0
1679064564998881,122045.0,136780.0,11557.0
1679064565007881,122068.0,136782.0,11560.0
1679064565017881,122044.0,136765.0,11557.0
1679064565028881,122053.0,136724.0,11569.0
1679064565038881,122078.0,136715.0,11564.0
1679064565047881,122044.0,136728.0,11571.0
1679064565057881,122068.0,136737.0,11550.0
1679064565067881,122061.0,136745.0,11557.0
1679064565078881,122077.0,136751.0,11554.0
1679064565088881,122091.0,136828.0,11547.0
1679064565097881,122101.0,136916.0,11591.0
1679064565107881,122123.0,136988.0,11563.0
1679064565118881,122102.0,137056.0,11531.0
1679064565127881,122099.0,137111.0,11525.0
1679064565136881,122053.0,137144.0,11527.0
1679064565146881,122004.0,137136.0,11533.0
1679064565157881,121980.0,137150.0,11521.0
1679064565168881,121968.0,137144.0,11521.0
1679064565177881,121952.0,137147.0,11529.0
1679064565189881,121942.0,137069.0,11512.0
1679064565198881,121948.0,137063.0,11550.0
1679064565208881,121955.0,137089.0,11527.0
1679064565217881,121959.0,137063.0,11528.0
1679064565227881,121963.0,137038.0,11522.0
1679064565238881,121977.0,137010.0,11526.0
1679064565248881,121982.0,136992.0,11540.0
1679064565257881,121987.0,136970.0,11548.0
1679064565267881,121992.0,136950.0,11540.0
1679064565278881,121994.0,136927.0,11548.0
1679064565288881,122004.0,136903.0,11551.0
1679064565297881,121992.0,136894.0,11547.0
1679064565307881,121981.0,136833.0,11533.0
1679064565318881,121989.0,136808.0,11540.0
1679064565328881,121978.0,136812.0,11556.0
1679064565337881,121971.0,136782.0,11556.0
1679064565347881,121981.0,136757.0,11553.0
1679064565357881,121965.0,136778.0,11556.0
1679064565368881,121986.0,136768.0,11520.0
1679064565378881,121978.0,136765.0,11526.0
1679064565387881,121944.0,136761.0,11557.0
1679064565397881,121937.0,136785.0,11557.0
1679064565408881,121982.0,136774.0,11521.0
1679064565417881,121929.0,136753.0,11558.0
1679064565427881,121954.0,136770.0,11560.0
1679064565437881,121951.0,136777.0,11564.0
1679064565448881,121968.0,136791.0,11554.0
1679064565457881,121951.0,136799.0,11558.0
1679064565467881,121971.0,136808.0,11548.0
1679064565477881,121998.0,136820.0,11559.0
1679064565488880,121986.0,136822.0,11554.0
1679064565498880,121995.0,136810.0,11555.0
1679064565507881,121982.0,136772.0,11548.0
1679064565517881,121990.0,136737.0,11539.0
1679064565528881,121980.0,136768.0,11547.0
1679064565538881,121986.0,136728.0,11546.0
1679064565547881,121987.0,136778.0,11558.0
1679064565557881,121988.0,136766.0,11541.0
1679064565567881,121980.0,136752.0,11527.0
1679064565578881,121980.0,136729.0,11510.0
1679064565586881,121975.0,136739.0,11525.0
1679064565597880,121964.0,136733.0,11526.0
1679064565608880,121973.0,136740.0,11555.0
1679064565618880,121987.0,136715.0,11552.0
1679064565627880,121974.0,136714.0,11544.0
1679064565637880,121982.0,136710.0,11530.0
1679064565647880,121981.0,136694.0,11549.0
1679064565657880,121985.0,136698.0,11518.0
1679064565667880,121980.0,136693.0,11523.0
1679064565677880,121993.0,136699.0,11526.0
1679064565687880,121969.0,136683.0,11529.0
1679064565697880,121980.0,136698.0,11523.0
1679064565708881,121956.0,136691.0,11551.0
1679064565717881,121965.0,136667.0,11549.0
1679064565727881,121979.0,136666.0,11547.0
1679064565737881,121974.0,136677.0,11510.0
1679064565747881,121929.0,136663.0,11559.0
1679064565757881,121935.0,136666.0,11561.0
1679064565767881,121932.0,136665.0,11555.0
1679064565777881,121947.0,136677.0,11552.0
1679064565787881,121935.0,136666.0,11553.0
1679064565797881,121936.0,136679.0,11553.0
1679064565807881,121918.0,136667.0,11551.0
1679064565817881,121950.0,136654.0,11547.0
1679064565827881,121940.0,136652.0,11553.0
1679064565837881,121931.0,136614.0,11550.0
1679064565847881,121941.0,136605.0,11541.0
1679064565858881,121941.0,136616.0,11552.0
1679064565867881,121951.0,136622.0,11551.0
1679064565878881,121939.0,136629.0,11554.0
1679064565887881,121944.0,136614.0,11545.0
1679064565898881,121940.0,136590.0,11555.0
1679064565907881,121936.0,136546.0,11560.0
1679064565918881,121928.0,136593.0,11558.0
1679064565927881,121920.0,136575.0,11551.0
1679064565938881,121931.0,136564.0,11555.0
1679064565947881,121924.0,136576.0,11552.0
1679064565957881,121912.0,136567.0,11528.0
1679064565967881,121917.0,136567.0,11510.0
1679064565977881,121909.0,136551.0,11519.0
1679064565987881,121872.0,136571.0,11558.0
1679064565997881,121857.0,136539.0,11557.0
1679064566007881,121900.0,136496.0,11541.0
1679064566016881,121902.0,136523.0,11535.0
1679064566027881,121903.0,136528.0,11545.0
1679064566037881,121903.0,136526.0,11541.0
1679064566047881,121897.0,136509.0,11543.0
1679064566056881,121892.0,136498.0,11542.0
1679064566067881,121890.0,136507.0,11540.0
1679064566077881,121890.0,136499.0,11537.0
1679064566087881,121864.0,136489.0,11531.0
1679064566097881,121850.0,136491.0,11540.0
1679064566107881,121892.0,136518.0,11518.0
1679064566117881,121858.0,136533.0,11549.0
1679064566128881,121890.0,136571.0,11560.0
1679064566137881,121940.0,136653.0,11544.0
1679064566147881,121939.0,136724.0,11548.0
1679064566157881,121951.0,136798.0,11555.0
1679064566167881,121914.0,136856.0,11520.0
1679064566177881,121877.0,136902.0,11508.0
1679064566187881,121865.0,136929.0,11508.0
1679064566197881,121827.0,136912.0,11485.0
1679064566208881,121821.0,136915.0,11501.0
1679064566217881,121815.0,136894.0,11518.0
1679064566227881,121773.0,136868.0,11508.0
1679064566237881,121785.0,136856.0,11500.0
1679064566247881,121786.0,136840.0,11510.0
1679064566257881,121804.0,136830.0,11505.0
1679064566267881,121817.0,136819.0,11523.0
1679064566277881,121829.0,136798.0,11514.0
1679064566287881,121834.0,136736.0,11519.0
1679064566297881,121832.0,136712.0,11527.0
1679064566307881,121846.0,136743.0,11524.0
1679064566317881,121835.0,136719.0,11538.0
1679064566327881,121846.0,136675.0,11532.0
1679064566336881,121851.0,136674.0,11539.0
1679064566347881,121871.0,136671.0,11520.0
1679064566357881,121859.0,136642.0,11528.0
1679064566367881,121857.0,136613.0,11522.0
1679064566377881,121850.0,136597.0,11513.0
1679064566387881,121851.0,136560.0,11495.0
1679064566398881,121847.0,136557.0,11510.0
1679064566407881,121852.0,136565.0,11550.0
1679064566418881,121855.0,136555.0,11543.0
1679064566427881,121840.0,136563.0,11530.0
1679064566437881,121853.0,136571.0,11499.0
1679064566447881,121845.0,136610.0,11532.0
1679064566457881,121840.0,136593.0,11541.0
1679064566467881,121842.0,136609.0,11526.0
1679064566477881,121838.0,136616.0,11548.0
1679064566487881,121834.0,136639.0,11535.0
1679064566499881,121836.0,136626.0,11545.0
1679064566507881,121833.0,136635.0,11571.0
1679064566517881,121844.0,136634.0,11528.0
1679064566527881,121847.0,136640.0,11528.0
1679064566537881,121848.0,136579.0,11536.0
1679064566546881,121849.0,136602.0,11527.0
1679064566557881,121794.0,136612.0,11538.0
1679064566567881,121794.0,136604.0,11540.0
1679064566577881,121810.0,136604.0,11544.0
1679064566586881,121853.0,136598.0,11533.0
1679064566597881,121834.0,136578.0,11529.0
1679064566607881,121839.0,136592.0,11522.0
1679064566617881,121801.0,136548.0,11530.0
1679064566627881,121821.0,136553.0,11534.0
1679064566637881,121823.0,136555.0,11528.0
1679064566647881,121815.0,136498.0,11527.0
1679064566657881,121814.0,136488.0,11534.0
1679064566667881,121824.0,136464.0,11529.0
1679064566676881,121826.0,136506.0,11508.0
1679064566687881,121826.0,136497.0,11492.0
1679064566697881,121808.0,136499.0,11518.0
1679064566707881,121780.0,136496.0,11544.0
1679064566716881,121821.0,136472.0,11512.0
1679064566727881,121836.0,136476.0,11501.0
1679064566737881,121813.0,136468.0,11511.0
1679064566747881,121821.0,136454.0,11512.0
1679064566756881,121812.0,136457.0,11504.0
1679064566767881,121816.0,136460.0,11518.0
1679064566776881,121807.0,136456.0,11524.0
1679064566787881,121817.0,136454.0,11504.0
1679064566796881,121804.0,136461.0,11520.0
1679064566807881,121773.0,136464.0,11539.0
1679064566817881,121816.0,136445.0,11517.0
1679064566827881,121800.0,136457.0,11529.0
1679064566836881,121792.0,136462.0,11516.0
1679064566847881,121796.0,136459.0,11530.0
1679064566857881,121815.0,136367.0,11531.0
1679064566867881,121794.0,136374.0,11525.0
1679064566877881,121793.0,136362.0,11529.0
1679064566887881,121795.0,136425.0,11533.0
1679064566897881,121793.0,136418.0,11535.0
1679064566907881,121794.0,136418.0,11538.0
1679064566917881,121776.0,136399.0,11536.0
1679064566927881,121784.0,136408.0,11538.0
1679064566937881,121780.0,136401.0,11541.0
1679064566947881,121770.0,136373.0,11539.0
1679064566957881,121779.0,136370.0,11534.0
1679064566967881,121772.0,136400.0,11535.0
1679064566977881,121775.0,136367.0,11536.0
1679064566986881,121786.0,136374.0,11529.0
1679064566997881,121781.0,136374.0,11513.0
1679064567006881,121732.0,136386.0,11539.0
1679064567017881,121786.0,136375.0,11501.0
1679064567027881,121787.0,136392.0,11511.0
1679064567037881,121793.0,136369.0,11518.0
1679064567046881,121805.0,136419.0,11536.0
1679064567057881,121815.0,136469.0,11527.0
1679064567067881,121834.0,136580.0,11537.0
1679064567077881,121831.0,136649.0,11535.0
1679064567086881,121838.0,136707.0,11527.0
1679064567096881,121809.0,136735.0,11513.0
1679064567107881,121777.0,136739.0,11513.0
1679064567116881,121749.0,136726.0,11511.0
1679064567127881,121740.0,136740.0,11496.0
1679064567136881,121724.0,136757.0,11493.0
1679064567147881,121719.0,136732.0,11503.0
1679064567157881,121722.0,136713.0,11489.0
1679064567167881,121703.0,136701.0,11510.0
1679064567176881,121664.0,136710.0,11514.0
1679064567187881,121720.0,136679.0,11508.0
1679064567197881,121734.0,136674.0,11501.0
1679064567207881,121734.0,136645.0,11507.0
1679064567216881,121751.0,136617.0,11522.0
1679064567227881,121751.0,136614.0,11522.0
1679064567237881,121755.0,136573.0,11523.0
1679064567247881,121752.0,136565.0,11523.0
1679064567256881,121748.0,136515.0,11524.0
1679064567267881,121760.0,136539.0,11534.0
1679064567277881,121748.0,136478.0,11521.0
1679064567287881,121739.0,136457.0,11519.0
1679064567296881,121753.0,136401.0,11519.0
1679064567307881,121753.0,136430.0,11520.0
1679064567317880,121722.0,136391.0,11530.0
1679064567327881,121761.0,136374.0,11530.0
1679064567336881,121761.0,136436.0,11528.0
1679064567346881,121739.0,136423.0,11527.0
1679064567357881,121747.0,136440.0,11519.0
1679064567366881,121754.0,136444.0,11526.0
1679064567377881,121740.0,136460.0,11534.0
1679064567386881,121732.0,136475.0,11535.0
1679064567397881,121779.0,136494.0,11524.0
1679064567406881,121783.0,136503.0,11522.0
1679064567417881,121777.0,136504.0,11538.0
1679064567426881,121743.0,136495.0,11523.0
1679064567437881,121753.0,136504.0,11531.0
1679064567446881,121753.0,136495.0,11527.0
1679064567457881,121765.0,136502.0,11537.0
1679064567466881,121757.0,136486.0,11520.0
1679064567477881,121767.0,136490.0,11524.0
1679064567486881,121754.0,136467.0,11528.0
1679064567497881,121729.0,136459.0,11529.0
1679064567506881,121715.0,136457.0,11531.0
1679064567517881,121767.0,136456.0,11471.0
1679064567526881,121716.0,136450.0,11528.0
1679064567537881,121732.0,136470.0,11536.0
1679064567546881,121779.0,136448.0,11532.0
1679064567557881,121781.0,136457.0,11532.0
1679064567567881,121775.0,136454.0,11532.0
1679064567576881,121742.0,136439.0,11534.0
1679064567586881,121758.0,136442.0,11526.0
1679064567596881,121751.0,136443.0,11536.0
1679064567607881,121783.0,136441.0,11525.0
1679064567616881,121835.0,136446.0,11532.0
1679064567627881,121770.0,136451.0,11531.0
1679064567636881,121786.0,136453.0,11524.0
1679064567647881,121790.0,136456.0,11521.0
1679064567657881,121795.0,136459.0,11536.0
1679064567667881,121788.0,136405.0,11533.0
1679064567676881,121804.0,136405.0,11535.0
1679064567687881,121805.0,136410.0,11534.0
1679064567697881,121802.0,136423.0,11535.0
1679064567707881,121815.0,136452.0,11513.0
1679064567716881,121836.0,136477.0,11540.0
1679064567727881,121815.0,136464.0,11527.0
1679064567737881,121829.0,136463.0,11527.0
1679064567747881,121825.0,136456.0,11527.0
1679064567756881,121802.0,136450.0,11533.0
1679064567766881,121818.0,136486.0,11531.0
1679064567777881,121818.0,136472.0,11531.0
1679064567787881,121818.0,136471.0,11521.0
1679064567796881,121825.0,136464.0,11527.0
1679064567807881,121818.0,136487.0,11527.0
1679064567817881,121813.0,136478.0,11530.0
1679064567827881,121816.0,136421.0,11535.0
1679064567836881,121833.0,136431.0,11530.0
1679064567846881,121840.0,136486.0,11537.0
1679064567857881,121843.0,136464.0,11539.0
1679064567867881,121843.0,136476.0,11532.0
1679064567876881,121847.0,136482.0,11542.0
1679064567886881,121851.0,136496.0,11523.0
1679064567896881,121819.0,136483.0,11525.0
1679064567908881,121841.0,136520.0,11527.0
1679064567916881,121842.0,136581.0,11532.0
1679064567926881,121900.0,136645.0,11532.0
1679064567936881,121903.0,136711.0,11541.0
1679064567947881,121903.0,136777.0,11537.0
1679064567957881,121883.0,136818.0,11530.0
1679064567966881,121858.0,136823.0,11523.0
1679064567976881,121829.0,136849.0,11516.0
1679064567987881,121808.0,136853.0,11513.0
1679064567997881,121779.0,136840.0,11511.0
1679064568008880,121771.0,136866.0,11509.0
1679064568016880,121764.0,136821.0,11509.0
1679064568027880,121767.0,136846.0,11503.0
1679064568036880,121780.0,136826.0,11508.0
1679064568046881,121787.0,136826.0,11509.0
1679064568056881,121785.0,136778.0,11505.0
1679064568067881,121795.0,136790.0,11514.0
1679064568077881,121814.0,136767.0,11513.0
1679064568086881,121831.0,136776.0,11487.0
1679064568096881,121822.0,136759.0,11483.0
1679064568106881,121842.0,136738.0,11495.0
1679064568117881,121834.0,136709.0,11518.0
1679064568127881,121843.0,136712.0,11509.0
1679064568136881,121845.0,136708.0,11524.0
1679064568146881,121840.0,136599.0,11514.0
1679064568157881,121859.0,136596.0,11522.0
1679064568167881,121852.0,136568.0,11530.0
1679064568175881,121850.0,136599.0,11530.0
1679064568186880,121866.0,136587.0,11518.0
1679064568196880,121855.0,136574.0,11522.0
1679064568207880,121845.0,136575.0,11516.0
1679064568215880,121805.0,136578.0,11537.0
1679064568226881,121874.0,136585.0,11505.0
1679064568236881,121832.0,136604.0,11536.0
1679064568247881,121863.0,136633.0,11536.0
1679064568256881,121870.0,136619.0,11528.0
1679064568266881,121882.0,136649.0,11535.0
1679064568276881,121875.0,136647.0,11531.0
1679064568286881,121879.0,136664.0,11524.0
1679064568296881,121839.0,136644.0,11535.0
1679064568306881,121831.0,136638.0,11525.0
1679064568316881,121837.0,136641.0,11541.0
1679064568326881,121881.0,136648.0,11502.0
1679064568336881,121893.0,136651.0,11498.0
1679064568346881,121885.0,136648.0,11502.0
1679064568356881,121862.0,136653.0,11541.0
1679064568366881,121855.0,136640.0,11518.0
1679064568377880,121863.0,136662.0,11527.0
1679064568386880,121877.0,136641.0,11526.0
1679064568396880,121897.0,136646.0,11532.0
1679064568406881,121888.0,136640.0,11529.0
1679064568417881,121898.0,136634.0,11534.0
1679064568426881,121897.0,136631.0,11533.0
1679064568436881,121898.0,136625.0,11530.0
1679064568446881,121895.0,136625.0,11530.0
1679064568457881,121894.0,136612.0,11541.0
1679064568466881,121907.0,136598.0,11538.0
1679064568476881,121907.0,136615.0,11537.0
1679064568486881,121910.0,136601.0,11534.0
1679064568496881,121903.0,136599.0,11544.0
1679064568506881,121923.0,136606.0,11523.0
1679064568516881,121917.0,136608.0,11533.0
1679064568526881,121934.0,136569.0,11534.0
1679064568536881,121928.0,136605.0,11536.0
1679064568546881,121934.0,136588.0,11522.0
1679064568556881,121937.0,136597.0,11529.0
1679064568566881,121907.0,136592.0,11541.0
1679064568576881,121895.0,136606.0,11542.0
1679064568586881,121920.0,136617.0,11541.0
1679064568596881,121945.0,136621.0,11538.0
1679064568607881,121949.0,136601.0,11537.0
1679064568616881,121952.0,136600.0,11536.0
1679064568627881,121949.0,136604.0,11540.0
1679064568636881,121947.0,136610.0,11537.0
1679064568646881,121946.0,136617.0,11543.0
1679064568656881,121963.0,136622.0,11530.0
1679064568666881,121957.0,136616.0,11531.0
1679064568676881,121977.0,136609.0,11513.0
1679064568686881,121966.0,136602.0,11525.0
1679064568696881,121968.0,136605.0,11525.0
1679064568706881,121970.0,136622.0,11533.0
1679064568716881,121970.0,136623.0,11545.0
1679064568726881,121922.0,136633.0,11538.0
1679064568736881,121936.0,136612.0,11549.0
1679064568746881,121953.0,136597.0,11529.0
1679064568756881,121954.0,136613.0,11532.0
1679064568766881,121968.0,136626.0,11529.0
1679064568776881,121978.0,136570.0,11545.0
1679064568786881,121992.0,136665.0,11544.0
1679064568795881,122010.0,136728.0,11538.0
1679064568806881,121961.0,136798.0,11542.0
1679064568816881,121964.0,136857.0,11551.0
1679064568827881,121992.0,136892.0,11483.0
1679064568836881,121977.0,136902.0,11521.0
1679064568846881,121936.0,136934.0,11520.0
1679064568856881,121911.0,136908.0,11524.0
1679064568867881,121890.0,136893.0,11514.0
1679064568876881,121878.0,136875.0,11506.0
1679064568886881,121855.0,136857.0,11509.0
1679064568896881,121857.0,136852.0,11515.0
1679064568907881,121857.0,136844.0,11515.0
1679064568916881,121870.0,136812.0,11510.0
1679064568926881,121870.0,136821.0,11527.0
1679064568936881,121866.0,136769.0,11526.0
1679064568947881,121856.0,136763.0,11524.0
1679064568956881,121881.0,136724.0,11516.0
1679064568965881,121892.0,136731.0,11487.0
1679064568976881,121900.0,136691.0,11491.0
1679064568986881,121898.0,136698.0,11516.0
1679064568997881,121896.0,136678.0,11518.0
1679064569005881,121898.0,136644.0,11516.0
1679064569016881,121903.0,136566.0,11519.0
1679064569026881,121903.0,136582.0,11529.0
1679064569037881,121895.0,136528.0,11534.0
1679064569045880,121885.0,136468.0,11528.0
1679064569056880,121892.0,136429.0,11529.0
1679064569066880,121876.0,136377.0,11534.0
1679064569076880,121866.0,136342.0,11539.0
1679064569086880,121864.0,136301.0,11543.0
1679064569096880,121856.0,136291.0,11560.0
1679064569106880,121862.0,136256.0,11550.0
1679064569117880,121887.0,136262.0,11562.0
1679064569126881,121878.0,136260.0,11544.0
1679064569136881,121896.0,136252.0,11556.0
1679064569146881,121881.0,136194.0,11538.0
1679064569157881,121891.0,136186.0,11548.0
1679064569166881,121892.0,136221.0,11554.0
1679064569176881,121885.0,136210.0,11561.0
1679064569186881,121882.0,136192.0,11556.0
1679064569196881,121880.0,136164.0,11546.0
1679064569206881,121872.0,136142.0,11543.0
1679064569215881,121864.0,136130.0,11537.0
1679064569226881,121866.0,136099.0,11531.0
1679064569236881,121844.0,136064.0,11569.0
1679064569246881,121833.0,136050.0,11560.0
1679064569255881,121851.0,136016.0,11527.0
1679064569266881,121845.0,136011.0,11547.0
1679064569275881,121840.0,135969.0,11539.0
1679064569286881,121842.0,135936.0,11539.0
1679064569295881,121842.0,135899.0,11558.0
1679064569306881,121828.0,135875.0,11555.0
1679064569316881,121813.0,135849.0,11541.0
1679064569326881,121781.0,135834.0,11574.0
1679064569336881,121784.0,135797.0,11544.0
1679064569346881,121777.0,135773.0,11588.0
1679064569355881,121761.0,135731.0,11587.0
1679064569366881,121776.0,135715.0,11578.0
1679064569376881,121779.0,135696.0,11579.0
1679064569386881,121759.0,135657.0,11578.0
1679064569396881,121764.0,135652.0,11591.0
1679064569406881,121751.0,135598.0,11591.0
1679064569416881,121755.0,135508.0,11588.0
1679064569426881,121764.0,135542.0,11587.0
1679064569436881,121750.0,135497.0,11588.0
1679064569446881,121739.0,135480.0,11595.0
1679064569456881,121746.0,135443.0,11588.0
1679064569466881,121761.0,135421.0,11588.0
1679064569476881,121757.0,135388.0,11609.0
1679064569486881,121751.0,135385.0,11603.0
1679064569496881,121759.0,135397.0,11596.0
1679064569505881,121712.0,135366.0,11620.0
1679064569516881,121727.0,135347.0,11619.0
1679064569525881,121742.0,135303.0,11616.0
1679064569536881,121744.0,135249.0,11612.0
1679064569545881,121744.0,135185.0,11636.0
1679064569556881,121739.0,135137.0,11636.0
1679064569566881,121752.0,135097.0,11641.0
1679064569576881,121745.0,135058.0,11656.0
1679064569586881,121768.0,135024.0,11622.0
1679064569595881,121749.0,134993.0,11626.0
1679064569606881,121745.0,134946.0,11627.0
1679064569616881,121700.0,134940.0,11667.0
1679064569626881,121702.0,134921.0,11667.0
1679064569635881,121716.0,134849.0,11643.0
1679064569646881,121718.0,134828.0,11645.0
1679064569656881,121695.0,134829.0,11669.0
1679064569666881,121733.0,134864.0,11660.0
1679064569675881,121732.0,134902.0,11684.0
1679064569686881,121736.0,134909.0,11670.0
1679064569696881,121697.0,134851.0,11663.0
1679064569707881,121671.0,134871.0,11672.0
1679064569715880,121633.0,134875.0,11663.0
1679064569726880,121600.0,134820.0,11663.0
1679064569736880,121576.0,134712.0,11646.0
1679064569746880,121568.0,134705.0,11657.0
1679064569755880,121548.0,134634.0,11638.0
1679064569765880,121544.0,134695.0,11651.0
1679064569776880,121558.0,134681.0,11653.0
1679064569786880,121566.0,134655.0,11654.0
1679064569795880,121573.0,134628.0,11660.0
1679064569805880,121588.0,134649.0,11663.0
1679064569816880,121596.0,134611.0,11666.0
1679064569826880,121613.0,134604.0,11671.0
1679064569836880,121607.0,134589.0,11675.0
1679064569845881,121614.0,134546.0,11678.0
1679064569856881,121606.0,134509.0,11669.0
1679064569866881,121630.0,134507.0,11669.0
1679064569876881,121622.0,134462.0,11687.0
1679064569885881,121582.0,134432.0,11680.0
1679064569894881,121582.0,134419.0,11681.0
1679064569905881,121577.0,134381.0,11685.0
1679064569915881,121608.0,134276.0,11689.0
1679064569925881,121600.0,134257.0,11694.0
1679064569934881,121594.0,134269.0,11684.0
1679064569945881,121577.0,134212.0,11686.0
1679064569955881,121575.0,134124.0,11690.0
1679064569965881,121560.0,134099.0,11691.0
1679064569974881,121554.0,134058.0,11698.0
1679064569985881,121536.0,134023.0,11709.0
1679064569995881,121528.0,133976.0,11706.0
1679064570005881,121526.0,133935.0,11709.0
1679064570014881,121514.0,133887.0,11704.0
1679064570026881,121510.0,133875.0,11713.0
1679064570036881,121498.0,133854.0,11719.0
1679064570046881,121548.0,133824.0,11723.0
1679064570055881,121612.0,133841.0,11743.0
1679064570065881,121728.0,134006.0,11721.0
1679064570076881,121943.0,134303.0,11735.0
1679064570086881,122237.0,134751.0,11769.0
1679064570095881,122640.0,135393.0,11829.0
1679064570105881,123119.0,136114.0,11864.0
1679064570116881,123613.0,136889.0,11906.0
1679064570126881,124050.0,137536.0,11938.0
1679064570135881,124354.0,138060.0,11955.0
1679064570145881,124449.0,138088.0,11975.0
1679064570156881,124420.0,137784.0,11991.0
1679064570166881,124357.0,137547.0,11984.0
1679064570176881,124306.0,137413.0,11984.0
1679064570185881,124288.0,137320.0,11989.0
1679064570196881,124279.0,137253.0,11987.0
1679064570206881,124306.0,137281.0,11975.0
1679064570215881,124360.0,137370.0,11976.0
1679064570225881,124411.0,137516.0,11945.0
1679064570235881,124477.0,137703.0,11939.0
1679064570246881,124418.0,137432.0,11965.0
1679064570255881,124158.0,136830.0,11974.0
1679064570266881,123850.0,136140.0,11944.0
1679064570275881,123452.0,135394.0,11940.0
1679064570286881,123105.0,134836.0,11915.0
1679064570295881,122837.0,134345.0,11911.0
1679064570306881,122642.0,134067.0,11894.0
1679064570315881,122509.0,133885.0,11871.0
1679064570326881,122405.0,133776.0,11851.0
1679064570336881,122242.0,133578.0,11817.0
1679064570346881,121845.0,133013.0,11793.0
1679064570355881,121603.0,132793.0,11773.0
1679064570366881,121576.0,132871.0,11769.0
1679064570376881,121557.0,132945.0,11761.0
1679064570386881,121547.0,133004.0,11767.0
1679064570395881,121528.0,133020.0,11753.0
1679064570405881,121428.0,133022.0,11719.0
1679064570416881,121340.0,132974.0,11694.0
1679064570427881,121196.0,132943.0,11684.0
1679064570435881,121072.0,132839.0,11697.0
1679064570445881,121001.0,132896.0,11621.0
1679064570456880,120898.0,132932.0,11549.0
1679064570465880,120761.0,132925.0,11533.0
1679064570476880,120654.0,132885.0,11504.0
1679064570485880,120582.0,132731.0,11537.0
1679064570496880,120550.0,132697.0,11540.0
1679064570505880,120605.0,132766.0,11558.0
1679064570515880,120923.0,133471.0,11561.0
1679064570527881,121745.0,135042.0,11583.0
1679064570535880,122562.0,136594.0,11607.0
1679064570545880,123289.0,138060.0,11620.0
1679064570555880,123866.0,139424.0,11643.0
1679064570566881,124363.0,140359.0,11682.0
1679064570575881,124651.0,140771.0,11703.0
1679064570586881,124797.0,140881.0,11757.0
1679064570595881,124954.0,140958.0,11778.0
1679064570606881,125152.0,140923.0,11794.0
1679064570615881,125325.0,140993.0,11809.0
1679064570628881,125444.0,141146.0,11806.0
1679064570635881,125548.0,141337.0,11790.0
1679064570646881,125602.0,141447.0,11798.0
1679064570655881,125641.0,141611.0,11774.0
1679064570666881,125641.0,141774.0,11757.0
1679064570675881,125614.0,141939.0,11729.0
1679064570686881,125581.0,141994.0,11718.0
1679064570695881,125435.0,141296.0,11774.0
1679064570706881,125117.0,140339.0,11797.0
1679064570715881,124728.0,139374.0,11793.0
1679064570726881,124243.0,138389.0,11780.0
1679064570735881,123917.0,137698.0,11772.0
1679064570746881,123671.0,137277.0,11767.0
1679064570755881,123523.0,136971.0,11742.0
1679064570766881,123472.0,136850.0,11770.0
1679064570776881,123553.0,137071.0,11757.0
1679064570785881,123857.0,137856.0,11743.0
1679064570795881,124231.0,138721.0,11729.0
1679064570805881,124632.0,139740.0,11721.0
1679064570816881,125043.0,140737.0,11695.0
1679064570825881,125340.0,141553.0,11694.0
1679064570836881,125515.0,142057.0,11688.0
1679064570845881,125590.0,142325.0,11697.0
1679064570855881,125660.0,142314.0,11724.0
1679064570865881,125701.0,142312.0,11729.0
1679064570876881,125786.0,142426.0,11721.0
1679064570885881,125807.0,142429.0,11695.0
1679064570895881,125763.0,142366.0,11667.0
1679064570905881,125680.0,142349.0,11631.0
1679064570916881,125637.0,142412.0,11591.0
1679064570925881,125595.0,142547.0,11551.0
1679064570935881,125595.0,142827.0,11519.0
1679064570945881,125581.0,143136.0,11476.0
1679064570956881,125596.0,143051.0,11499.0
1679064570965881,125575.0,142222.0,11584.0
1679064570975881,125399.0,141115.0,11672.0
1679064570985881,125016.0,139905.0,11713.0
1679064570996881,124707.0,139145.0,11719.0
1679064571005881,124582.0,138882.0,11737.0
1679064571015881,124556.0,138804.0,11748.0
1679064571025881,124545.0,138872.0,11731.0
1679064571036881,124556.0,138908.0,11727.0
1679064571045881,124514.0,138761.0,11721.0
1679064571055881,124445.0,138835.0,11716.0
1679064571065881,124414.0,138911.0,11693.0
1679064571075881,124333.0,138929.0,11675.0
1679064571086881,124242.0,138918.0,11613.0
1679064571095881,124153.0,138930.0,11623.0
1679064571105881,124114.0,138907.0,11597.0
1679064571115881,123958.0,138757.0,11637.0
1679064571126881,123796.0,138430.0,11629.0
1679064571135881,123601.0,138130.0,11620.0
1679064571145881,123445.0,137865.0,11626.0
1679064571155881,123259.0,137554.0,11628.0
1679064571165881,123046.0,137220.0,11606.0
1679064571175881,122877.0,136872.0,11559.0
1679064571185881,122639.0,136529.0,11550.0
1679064571195881,122498.0,136373.0,11530.0
1679064571205881,122607.0,136890.0,11483.0
1679064571215881,122989.0,137985.0,11436.0
1679064571225881,123294.0,139063.0,11397.0
1679064571235881,123627.0,140169.0,11380.0
1679064571245881,123902.0,141007.0,11404.0
1679064571255881,124172.0,141700.0,11396.0
1679064571265881,124416.0,142131.0,11413.0
1679064571275881,124571.0,142320.0,11421.0
1679064571285881,124676.0,142388.0,11440.0
1679064571295881,124719.0,142489.0,11465.0
1679064571305881,124833.0,142502.0,11467.0
1679064571315881,124901.0,142535.0,11453.0
1679064571325881,124958.0,142575.0,11454.0
1679064571336881,124977.0,142733.0,11442.0
1679064571345881,124948.0,142977.0,11423.0
1679064571356881,125023.0,143133.0,11415.0
1679064571365881,125079.0,143247.0,11420.0
1679064571375881,125149.0,142950.0,11472.0
1679064571385881,125221.0,142671.0,11472.0
1679064571395881,125227.0,142335.0,11517.0
1679064571405881,125209.0,141971.0,11534.0
1679064571415881,125062.0,141721.0,11587.0
1679064571425881,124964.0,141474.0,11597.0
1679064571435881,124832.0,141167.0,11591.0
1679064571445881,124699.0,140729.0,11592.0
1679064571455881,124527.0,140373.0,11582.0
1679064571465881,124408.0,140225.0,11565.0
1679064571475881,124396.0,140297.0,11542.0
1679064571486881,124449.0,140632.0,11524.0
1679064571496881,124514.0,141093.0,11481.0
1679064571504881,124511.0,141372.0,11480.0
1679064571515880,124539.0,141516.0,11479.0
1679064571525880,124540.0,141480.0,11470.0
1679064571536880,124528.0,141427.0,11468.0
1679064571544880,124516.0,141427.0,11437.0
1679064571555880,124350.0,141521.0,11369.0
1679064571565880,124207.0,141608.0,11305.0
1679064571575880,124070.0,141735.0,11249.0
1679064571585880,123912.0,141949.0,11191.0
1679064571595880,123811.0,142169.0,11143.0
1679064571605880,123913.0,141676.0,11240.0
1679064571615880,123981.0,140912.0,11352.0
1679064571625880,123937.0,140160.0,11410.0
1679064571635880,123759.0,139402.0,11449.0
1679064571645881,123705.0,139183.0,11448.0
1679064571655881,123669.0,139162.0,11474.0
1679064571665881,123774.0,139174.0,11458.0
1679064571674881,123814.0,139102.0,11490.0
1679064571685881,123851.0,139077.0,11496.0
1679064571695881,124078.0,139648.0,11442.0
1679064571705881,124318.0,140370.0,11411.0
1679064571714881,124417.0,141114.0,11381.0
1679064571725881,124575.0,141769.0,11344.0
1679064571736881,124638.0,142193.0,11330.0
1679064571745881,124716.0,142515.0,11285.0
1679064571754881,124735.0,142624.0,11262.0
1679064571765881,124736.0,142571.0,11252.0
1679064571775881,124685.0,142602.0,11265.0
1679064571785881,124626.0,142661.0,11237.0
1679064571794881,124535.0,142678.0,11200.0
1679064571805881,124451.0,142696.0,11173.0
1679064571815881,124397.0,142692.0,11153.0
1679064571826881,124351.0,142682.0,11166.0
1679064571836881,124410.0,142204.0,11238.0
1679064571845881,124405.0,141609.0,11303.0
1679064571855881,124299.0,140797.0,11365.0
1679064571865881,124095.0,140063.0,11391.0
1679064571875881,123923.0,139555.0,11417.0
1679064571884881,123873.0,139472.0,11428.0
1679064571894881,123897.0,139532.0,11434.0
1679064571904881,123941.0,139510.0,11448.0
1679064571914881,123957.0,139410.0,11476.0
1679064571924881,123951.0,139350.0,11476.0
1679064571933881,123920.0,139245.0,11467.0
1679064571944881,123878.0,139124.0,11494.0
1679064571954881,123835.0,139006.0,11512.0
1679064571964881,123805.0,138915.0,11504.0
1679064571973881,123792.0,138844.0,11495.0
1679064571984881,123791.0,138824.0,11499.0
1679064571994881,123828.0,138874.0,11524.0
1679064572005881,123856.0,138890.0,11517.0
1679064572014881,123906.0,139098.0,11503.0
1679064572025881,123966.0,139479.0,11495.0
1679064572035881,123964.0,139815.0,11448.0
1679064572045881,123924.0,140089.0,11391.0
1679064572054881,123806.0,140274.0,11347.0
1679064572065881,123691.0,140445.0,11292.0
1679064572075881,123568.0,140583.0,11236.0
1679064572086881,123445.0,140841.0,11174.0
1679064572095881,123366.0,141169.0,11104.0
1679064572104881,123300.0,141394.0,11054.0
1679064572115881,123250.0,141510.0,11007.0
1679064572125881,123231.0,141419.0,11028.0
1679064572135881,123280.0,141221.0,11080.0
1679064572144881,123404.0,140927.0,11142.0
1679064572155881,123538.0,140583.0,11200.0
1679064572165881,123573.0,140327.0,11232.0
1679064572174881,123578.0,140196.0,11239.0
1679064572184881,123595.0,140220.0,11267.0
1679064572195881,123664.0,140515.0,11278.0
1679064572205881,123758.0,140655.0,11296.0
1679064572215881,123827.0,140658.0,11329.0
1679064572225881,123937.0,140697.0,11364.0
1679064572235881,123986.0,140551.0,11408.0
1679064572245881,124009.0,140222.0,11468.0
1679064572254881,123934.0,139805.0,11475.0
1679064572265881,123869.0,139399.0,11494.0
1679064572274881,123703.0,138880.0,11540.0
1679064572285881,123513.0,138426.0,11583.0
1679064572294881,123475.0,138483.0,11586.0
1679064572305881,123782.0,139257.0,11548.0
1679064572314881,124123.0,140267.0,11498.0
1679064572325881,124427.0,141299.0,11449.0
1679064572335881,124612.0,142044.0,11420.0
1679064572345881,124709.0,142511.0,11395.0
1679064572354881,124684.0,142634.0,11386.0
1679064572365881,124717.0,142684.0,11376.0
1679064572375881,124727.0,142743.0,11368.0
1679064572385881,124742.0,142716.0,11362.0
1679064572395881,124700.0,142786.0,11337.0
1679064572404881,124655.0,142899.0,11288.0
1679064572415881,124584.0,142978.0,11230.0
1679064572424881,124527.0,143046.0,11210.0
1679064572435881,124453.0,143101.0,11205.0
1679064572444881,124404.0,143153.0,11179.0
1679064572455881,124372.0,143269.0,11116.0
1679064572464881,124336.0,143413.0,11117.0
1679064572475881,124287.0,143567.0,11084.0
1679064572485881,124313.0,143752.0,11082.0
1679064572495881,124443.0,143703.0,11133.0
1679064572504881,124616.0,143531.0,11197.0
1679064572515881,124822.0,143391.0,11260.0
1679064572524881,124924.0,143212.0,11288.0
1679064572535881,124918.0,143129.0,11296.0
1679064572544881,124902.0,143051.0,11300.0
1679064572555881,124837.0,142897.0,11321.0
1679064572564881,124834.0,142606.0,11346.0
1679064572575881,124791.0,142241.0,11381.0
1679064572585881,124734.0,141801.0,11418.0
1679064572595881,124636.0,141374.0,11454.0
1679064572605881,124530.0,141007.0,11475.0
1679064572614881,124403.0,140734.0,11507.0
1679064572625881,124322.0,140456.0,11525.0
1679064572634881,124216.0,140114.0,11543.0
1679064572645881,124161.0,139776.0,11554.0
1679064572655881,124068.0,139533.0,11556.0
1679064572665881,124035.0,139549.0,11546.0
1679064572674881,124083.0,139733.0,11532.0
1679064572685881,124157.0,140054.0,11511.0
1679064572695881,124189.0,140342.0,11484.0
1679064572705881,124244.0,140642.0,11461.0
1679064572714881,124263.0,140858.0,11441.0
1679064572725881,124237.0,141025.0,11427.0
1679064572735881,124239.0,141210.0,11400.0
1679064572745881,124237.0,141475.0,11362.0
1679064572754881,124274.0,141606.0,11367.0
1679064572765881,124244.0,141717.0,11348.0
1679064572775881,124262.0,141813.0,11331.0
1679064572785881,124242.0,141897.0,11328.0
1679064572794881,124204.0,141949.0,11312.0
1679064572804881,124162.0,141994.0,11289.0
1679064572815881,124131.0,142056.0,11264.0
1679064572825881,124060.0,142122.0,11234.0
1679064572835881,124036.0,142293.0,11200.0
1679064572845881,124014.0,142471.0,11176.0
1679064572855881,124068.0,142442.0,11197.0
1679064572865881,124191.0,142250.0,11279.0
1679064572875881,124328.0,142045.0,11320.0
1679064572884881,124383.0,141803.0,11357.0
1679064572895881,124400.0,141571.0,11394.0
1679064572905881,124390.0,141405.0,11404.0
1679064572914881,124384.0,141327.0,11417.0
1679064572924881,124361.0,141258.0,11379.0
1679064572934881,124248.0,141229.0,11371.0
1679064572946881,124135.0,141268.0,11351.0
1679064572954881,123988.0,141296.0,11305.0
1679064572964881,123842.0,141264.0,11241.0
1679064572974881,123648.0,141220.0,11220.0
1679064572985881,123499.0,141149.0,11198.0
1679064572995881,123387.0,141075.0,11184.0
1679064573004881,123329.0,141014.0,11184.0
1679064573014881,123328.0,140947.0,11162.0
1679064573024881,123376.0,140897.0,11184.0
1679064573035881,123461.0,140878.0,11213.0
1679064573045881,123533.0,140851.0,11257.0
1679064573054881,123649.0,140861.0,11276.0
1679064573064881,123731.0,140857.0,11314.0
1679064573075881,123827.0,140882.0,11326.0
1679064573085881,123903.0,140873.0,11361.0
1679064573094881,123962.0,140842.0,11363.0
1679064573104881,123968.0,140808.0,11416.0
1679064573115881,124049.0,140857.0,11415.0
1679064573125881,124148.0,140888.0,11446.0
1679064573134881,124222.0,140977.0,11465.0
1679064573145881,124293.0,141085.0,11476.0
1679064573154881,124344.0,141169.0,11480.0
1679064573165881,124401.0,141210.0,11486.0
1679064573174881,124443.0,141267.0,11514.0
1679064573185881,124480.0,141361.0,11499.0
1679064573194881,124510.0,141424.0,11491.0
1679064573204881,124519.0,141429.0,11526.0
1679064573214881,124505.0,141455.0,11509.0
1679064573224881,124494.0,141479.0,11499.0
1679064573235881,124504.0,141454.0,11499.0
1679064573245881,124450.0,141392.0,11493.0
1679064573254881,124430.0,141299.0,11505.0
1679064573264881,124400.0,141336.0,11507.0
1679064573274881,124374.0,141242.0,11490.0
1679064573285881,124345.0,141242.0,11492.0
1679064573294881,124335.0,141241.0,11465.0
1679064573304881,124308.0,141223.0,11469.0
1679064573314881,124288.0,141238.0,11490.0
1679064573325881,124315.0,141232.0,11493.0
1679064573335881,124347.0,141171.0,11512.0
1679064573344881,124344.0,141155.0,11520.0
1679064573354881,124352.0,141095.0,11518.0
1679064573365881,124360.0,141074.0,11530.0
1679064573375881,124367.0,141034.0,11535.0
1679064573384881,124369.0,140994.0,11544.0
1679064573394881,124373.0,140972.0,11548.0
1679064573405881,124385.0,140954.0,11559.0
1679064573415881,124389.0,140938.0,11569.0
1679064573423880,124405.0,140915.0,11549.0
1679064573434880,124409.0,140893.0,11557.0
1679064573444881,124418.0,140852.0,11568.0
1679064573455881,124373.0,140858.0,11597.0
1679064573464881,124380.0,140829.0,11596.0
1679064573474881,124386.0,140805.0,11595.0
1679064573484881,124417.0,140804.0,11605.0
1679064573495881,124424.0,140814.0,11609.0
1679064573504881,124432.0,140833.0,11607.0
1679064573514881,124438.0,140830.0,11600.0
1679064573524881,124445.0,140841.0,11602.0
1679064573535881,124440.0,140821.0,11606.0
1679064573544881,124456.0,140827.0,11602.0
1679064573554881,124457.0,140840.0,11612.0
1679064573564881,124465.0,140771.0,11616.0
1679064573574881,124456.0,140763.0,11624.0
1679064573585881,124447.0,140748.0,11633.0
1679064573594881,124470.0,140742.0,11626.0
1679064573604881,124464.0,140759.0,11624.0
1679064573614881,124443.0,140774.0,11650.0
1679064573625881,124482.0,140779.0,11637.0
1679064573634881,124489.0,140771.0,11641.0
1679064573644881,124506.0,140746.0,11653.0
1679064573654881,124501.0,140776.0,11652.0
1679064573665881,124509.0,140825.0,11646.0
1679064573674881,124524.0,140821.0,11650.0
1679064573684881,124555.0,140871.0,11651.0
1679064573694881,124582.0,140936.0,11634.0
1679064573704881,124605.0,140961.0,11640.0
1679064573714881,124633.0,140985.0,11648.0
1679064573724881,124652.0,140977.0,11669.0
1679064573734881,124606.0,140971.0,11665.0
1679064573744881,124605.0,140968.0,11687.0
1679064573754881,124653.0,140991.0,11688.0
1679064573763881,124700.0,140994.0,11675.0
1679064573774881,124715.0,141010.0,11669.0
1679064573784881,124679.0,141045.0,11696.0
1679064573794881,124711.0,141080.0,11702.0
1679064573804881,124729.0,141084.0,11700.0
1679064573814881,124750.0,141100.0,11708.0
1679064573824881,124756.0,141098.0,11699.0
1679064573835881,124769.0,141105.0,11705.0
1679064573844881,124749.0,141062.0,11704.0
1679064573854881,124716.0,141029.0,11694.0
1679064573864881,124645.0,140962.0,11671.0
1679064573875881,124480.0,140813.0,11654.0
1679064573884881,124335.0,140629.0,11636.0
1679064573894881,124152.0,140439.0,11608.0
1679064573904881,123963.0,140224.0,11587.0
1679064573914881,123809.0,140060.0,11579.0
1679064573924881,123765.0,139955.0,11565.0
1679064573934881,123769.0,139969.0,11571.0
1679064573944881,123797.0,140033.0,11578.0
1679064573954881,123885.0,140103.0,11579.0
1679064573964881,123977.0,140196.0,11569.0
1679064573974881,124065.0,140323.0,11619.0
1679064573985881,124174.0,140454.0,11630.0
1679064573994881,124267.0,140501.0,11643.0
1679064574003881,124363.0,140599.0,11657.0
1679064574014881,124429.0,140653.0,11657.0
1679064574024881,124492.0,140731.0,11670.0
1679064574034881,124546.0,140773.0,11679.0
1679064574044881,124583.0,140814.0,11688.0
1679064574055881,124629.0,140836.0,11703.0
1679064574064881,124669.0,140864.0,11700.0
1679064574074881,124718.0,141015.0,11715.0
1679064574084881,124758.0,141050.0,11714.0
1679064574094881,124781.0,141081.0,11710.0
1679064574104881,124805.0,141082.0,11722.0
1679064574114881,124806.0,141102.0,11737.0
1679064574124881,124802.0,141062.0,11729.0
1679064574134881,124806.0,141021.0,11738.0
1679064574144881,124781.0,141021.0,11725.0
1679064574156881,124751.0,140988.0,11727.0
1679064574164881,124727.0,140941.0,11720.0
1679064574173881,124708.0,140920.0,11718.0
1679064574184881,124664.0,140893.0,11688.0
1679064574194881,124633.0,140880.0,11698.0
1679064574205881,124621.0,140872.0,11695.0
1679064574213881,124567.0,140781.0,11703.0
1679064574224881,124552.0,140762.0,11703.0
1679064574234881,124541.0,140721.0,11687.0
1679064574245880,124524.0,140705.0,11695.0
1679064574253880,124523.0,140709.0,11692.0
1679064574264880,124529.0,140738.0,11691.0
1679064574274880,124538.0,140713.0,11696.0
1679064574284880,124531.0,140753.0,11696.0
1679064574294880,124567.0,140787.0,11668.0
1679064574303880,124570.0,140803.0,11675.0
1679064574314880,124590.0,140819.0,11673.0
1679064574324880,124590.0,140841.0,11688.0
1679064574334880,124603.0,140856.0,11666.0
1679064574343881,124605.0,140852.0,11682.0
1679064574354881,124606.0,140861.0,11671.0
1679064574364881,124555.0,140885.0,11702.0
1679064574374881,124623.0,140886.0,11657.0
1679064574383881,124580.0,140886.0,11685.0
1679064574394881,124599.0,140904.0,11680.0
1679064574404881,124605.0,140901.0,11696.0
1679064574415881,124630.0,140906.0,11699.0
1679064574423880,124636.0,140917.0,11691.0
1679064574433880,124625.0,140932.0,11695.0
1679064574444880,124642.0,140952.0,11662.0
1679064574454880,124639.0,140938.0,11683.0
1679064574463880,124638.0,140939.0,11659.0
1679064574473880,124611.0,140927.0,11648.0
1679064574484880,124618.0,140920.0,11646.0
1679064574494880,124593.0,140919.0,11658.0
1679064574503880,124588.0,140894.0,11671.0
1679064574513880,124599.0,140874.0,11672.0
1679064574524881,124588.0,140881.0,11686.0
1679064574534881,124532.0,140871.0,11693.0
1679064574544881,124583.0,140889.0,11695.0
1679064574553881,124586.0,140852.0,11690.0
1679064574564881,124570.0,140847.0,11686.0
1679064574574881,124567.0,140888.0,11670.0
1679064574585881,124563.0,140854.0,11685.0
1679064574593881,124571.0,140830.0,11691.0
1679064574604880,124564.0,140837.0,11682.0
1679064574614880,124559.0,140824.0,11700.0
1679064574625880,124552.0,140812.0,11687.0
1679064574633880,124556.0,140838.0,11687.0
1679064574643880,124564.0,140813.0,11686.0
1679064574654880,124523.0,140815.0,11700.0
1679064574664880,124513.0,140808.0,11688.0
1679064574673880,124557.0,140810.0,11675.0
1679064574683880,124548.0,140803.0,11659.0
1679064574694880,124544.0,140785.0,11669.0
1679064574704881,124546.0,140793.0,11670.0
1679064574714881,124527.0,140755.0,11712.0
1679064574723881,124554.0,140765.0,11709.0
1679064574733881,124548.0,140740.0,11714.0
1679064574744881,124562.0,140744.0,11700.0
1679064574753881,124564.0,140749.0,11702.0
1679064574763881,124557.0,140733.0,11704.0
1679064574774881,124560.0,140704.0,11714.0
1679064574784881,124526.0,140678.0,11709.0
1679064574794881,124478.0,140636.0,11692.0
1679064574803881,124388.0,140546.0,11685.0
1679064574814881,124254.0,140383.0,11666.0
1679064574824881,124093.0,140205.0,11644.0
1679064574834881,123898.0,140032.0,11591.0
1679064574843881,123772.0,139866.0,11558.0
1679064574853881,123627.0,139756.0,11566.0
1679064574864881,123584.0,139685.0,11578.0
1679064574874881,123514.0,139636.0,11575.0
1679064574884881,123568.0,139687.0,11576.0
1679064574893881,123650.0,139764.0,11584.0
1679064574904881,123726.0,139799.0,11605.0
1679064574914881,123806.0,139868.0,11623.0
1679064574923881,123905.0,139995.0,11590.0
1679064574934881,123978.0,140077.0,11614.0
1679064574943881,124055.0,140138.0,11632.0
1679064574954881,124118.0,140192.0,11662.0
1679064574963881,124175.0,140264.0,11681.0
1679064574974881,124251.0,140349.0,11699.0
1679064574983881,124303.0,140377.0,11701.0
1679064574994881,124357.0,140444.0,11705.0
1679064575003881,124409.0,140506.0,11710.0
1679064575014881,124450.0,140539.0,11742.0
1679064575023881,124484.0,140588.0,11737.0
1679064575034881,124520.0,140614.0,11721.0
1679064575044880,124546.0,140631.0,11731.0
1679064575054880,124542.0,140619.0,11743.0
1679064575063881,124537.0,140589.0,11739.0
1679064575074881,124547.0,140634.0,11703.0
1679064575084881,124537.0,140565.0,11735.0
1679064575094881,124520.0,140544.0,11741.0
1679064575103881,124495.0,140526.0,11734.0
1679064575114881,124463.0,140516.0,11731.0
1679064575124881,124435.0,140486.0,11725.0
1679064575133881,124400.0,140502.0,11712.0
1679064575144881,124405.0,140478.0,11720.0
1679064575153881,124398.0,140447.0,11718.0
1679064575164881,124382.0,140378.0,11714.0
1679064575173881,124406.0,140408.0,11732.0
1679064575184881,124413.0,140374.0,11750.0
1679064575193881,124433.0,140310.0,11759.0
1679064575204881,124451.0,140303.0,11767.0
1679064575213881,124468.0,140301.0,11771.0
1679064575224881,124491.0,140332.0,11779.0
1679064575233881,124511.0,140343.0,11780.0
1679064575244881,124521.0,140349.0,11782.0
1679064575253881,124536.0,140364.0,11779.0
1679064575265881,124550.0,140387.0,11768.0
1679064575273881,124577.0,140391.0,11808.0
1679064575283881,124593.0,140376.0,11768.0
1679064575294881,124601.0,140388.0,11765.0
1679064575303881,124599.0,140395.0,11769.0
1679064575314881,124600.0,140424.0,11799.0
1679064575323881,124605.0,140431.0,11794.0
1679064575334881,124601.0,140425.0,11807.0
1679064575343881,124612.0,140428.0,11785.0
1679064575354881,124589.0,140452.0,11790.0
1679064575365881,124587.0,140451.0,11782.0
1679064575374881,124600.0,140432.0,11795.0
1679064575383881,124589.0,140389.0,11781.0
1679064575394881,124573.0,140401.0,11780.0
1679064575403881,124581.0,140436.0,11780.0
1679064575414881,124577.0,140415.0,11784.0
1679064575423881,124590.0,140397.0,11792.0
1679064575433881,124593.0,140397.0,11804.0
1679064575444881,124568.0,140335.0,11806.0
1679064575454881,124586.0,140346.0,11819.0
1679064575463881,124609.0,140334.0,11833.0
1679064575473881,124656.0,140357.0,11824.0
1679064575484881,124679.0,140390.0,11831.0
1679064575494881,124755.0,140451.0,11823.0
1679064575503881,124777.0,140467.0,11833.0
1679064575513881,124797.0,140501.0,11841.0
1679064575523881,124828.0,140548.0,11838.0
1679064575534881,124866.0,140597.0,11816.0
1679064575543881,124859.0,140611.0,11825.0
1679064575553881,124860.0,140629.0,11797.0
1679064575563881,124855.0,140626.0,11807.0
1679064575574880,124853.0,140652.0,11776.0
1679064575583881,124834.0,140647.0,11788.0
1679064575593881,124809.0,140647.0,11770.0
1679064575603881,124795.0,140636.0,11781.0
1679064575614881,124775.0,140677.0,11765.0
1679064575623881,124713.0,140666.0,11784.0
1679064575633881,124717.0,140686.0,11771.0
1679064575643881,124697.0,140650.0,11767.0
1679064575654881,124690.0,140662.0,11775.0
1679064575664881,124676.0,140667.0,11763.0
1679064575673881,124654.0,140692.0,11742.0
1679064575683881,124626.0,140627.0,11751.0
1679064575694881,124571.0,140605.0,11742.0
1679064575703881,124502.0,140537.0,11729.0
1679064575713881,124421.0,140432.0,11724.0
1679064575723881,124334.0,140359.0,11705.0
1679064575734881,124276.0,140364.0,11699.0
1679064575743881,124264.0,140371.0,11684.0
1679064575753881,124253.0,140437.0,11677.0
1679064575763881,124224.0,140485.0,11657.0
1679064575774881,124144.0,140453.0,11637.0
1679064575783881,124011.0,140381.0,11597.0
1679064575793881,123836.0,140214.0,11561.0
1679064575803881,123630.0,140085.0,11519.0
1679064575813881,123395.0,139882.0,11465.0
1679064575824881,123097.0,139707.0,11446.0
1679064575833881,122959.0,139549.0,11409.0
1679064575843881,122803.0,139394.0,11394.0
1679064575853881,122740.0,139364.0,11383.0
1679064575864881,122751.0,139445.0,11366.0
1679064575874881,122825.0,139631.0,11368.0
1679064575883881,122900.0,139863.0,11352.0
1679064575893881,123013.0,140120.0,11339.0
1679064575903881,123111.0,140336.0,11348.0
1679064575914881,123219.0,140521.0,11313.0
1679064575922881,123289.0,140710.0,11323.0
1679064575933880,123353.0,140878.0,11298.0
1679064575943880,123370.0,141074.0,11333.0
1679064575954880,123441.0,141250.0,11318.0
1679064575963881,123483.0,141368.0,11312.0
1679064575973881,123542.0,141477.0,11318.0
1679064575983881,123541.0,141516.0,11314.0
1679064575994881,123592.0,141521.0,11326.0
1679064576003881,123600.0,141497.0,11327.0
1679064576013881,123613.0,141516.0,11323.0
1679064576023881,123624.0,141592.0,11325.0
1679064576034881,123634.0,141622.0,11307.0
1679064576043881,123631.0,141655.0,11306.0
1679064576052881,123635.0,141724.0,11304.0
1679064576063881,123616.0,141803.0,11277.0
1679064576074881,123600.0,141867.0,11269.0
1679064576084881,123540.0,141827.0,11267.0
1679064576092881,123535.0,141884.0,11235.0
1679064576103881,123514.0,141899.0,11233.0
1679064576113880,123487.0,141905.0,11230.0
1679064576124880,123475.0,141897.0,11232.0
1679064576132880,123380.0,141900.0,11246.0
1679064576143881,123392.0,141894.0,11242.0
1679064576153881,123417.0,141888.0,11234.0
1679064576164881,123416.0,141862.0,11230.0
1679064576173881,123404.0,141870.0,11234.0
1679064576183881,123408.0,141846.0,11233.0
1679064576193881,123406.0,141834.0,11236.0
1679064576203881,123414.0,141853.0,11229.0
1679064576213881,123388.0,141914.0,11229.0
1679064576222881,123391.0,141910.0,11241.0
1679064576233881,123412.0,141936.0,11249.0
1679064576243881,123416.0,141920.0,11244.0
1679064576253881,123439.0,141926.0,11255.0
1679064576262881,123447.0,141945.0,11256.0
1679064576273881,123467.0,141939.0,11264.0
1679064576283881,123527.0,141933.0,11224.0
1679064576294880,123534.0,141907.0,11240.0
1679064576302880,123496.0,141901.0,11272.0
1679064576313880,123503.0,141888.0,11273.0
1679064576323881,123509.0,141871.0,11270.0
1679064576333881,123522.0,141754.0,11280.0
1679064576343881,123517.0,141780.0,11275.0
1679064576353881,123520.0,141759.0,11272.0
1679064576363881,123540.0,141772.0,11294.0
1679064576373881,123487.0,141777.0,11287.0
1679064576383881,123493.0,141750.0,11240.0
1679064576393881,123508.0,141706.0,11287.0
1679064576403881,123495.0,141677.0,11277.0
1679064576413881,123495.0,141611.0,11290.0
1679064576423881,123484.0,141535.0,11300.0
1679064576433881,123480.0,141477.0,11305.0
1679064576443881,123438.0,141417.0,11306.0
1679064576453881,123417.0,141292.0,11308.0
1679064576463881,123381.0,141200.0,11319.0
1679064576474881,123368.0,141124.0,11318.0
1679064576483881,123344.0,141051.0,11304.0
1679064576493881,123339.0,140993.0,11315.0
1679064576503881,123328.0,140919.0,11320.0
1679064576513881,123322.0,140851.0,11297.0
1679064576523881,123256.0,140802.0,11331.0
1679064576534881,123243.0,140732.0,11335.0
1679064576543881,123256.0,140626.0,11338.0
1679064576553881,123244.0,140608.0,11344.0
1679064576563881,123212.0,140489.0,11346.0
1679064576574881,123194.0,140396.0,11373.0
1679064576584881,123201.0,140394.0,11356.0
1679064576592881,123192.0,140405.0,11358.0
1679064576603881,123213.0,140392.0,11363.0
1679064576613880,123229.0,140347.0,11363.0
1679064576624880,123225.0,140376.0,11370.0
1679064576632880,123230.0,140387.0,11374.0
1679064576643880,123241.0,140356.0,11378.0
1679064576653880,123244.0,140323.0,11380.0
1679064576663880,123239.0,140295.0,11394.0
1679064576672880,123226.0,140260.0,11377.0
1679064576683881,123220.0,140242.0,11389.0
1679064576693881,123245.0,140259.0,11387.0
1679064576703881,123225.0,140239.0,11393.0
1679064576713881,123233.0,140235.0,11390.0
1679064576722881,123216.0,140213.0,11402.0
1679064576733881,123228.0,140237.0,11388.0
1679064576743881,123208.0,140292.0,11372.0
1679064576753881,123148.0,140297.0,11364.0
1679064576763881,123061.0,140264.0,11352.0
1679064576772881,122952.0,140194.0,11326.0
1679064576783881,122838.0,140116.0,11282.0
1679064576794880,122715.0,140015.0,11295.0
1679064576803881,122629.0,139949.0,11286.0
1679064576812881,122591.0,139924.0,11253.0
1679064576823881,122562.0,139929.0,11250.0
1679064576833881,122598.0,139951.0,11266.0
1679064576843881,122651.0,139985.0,11260.0
1679064576852881,122678.0,140026.0,11297.0
1679064576863881,122770.0,140073.0,11295.0
1679064576873881,122825.0,140099.0,11335.0
1679064576883881,122944.0,140158.0,11355.0
1679064576892881,122998.0,140217.0,11361.0
1679064576903881,123096.0,140288.0,11365.0
1679064576913881,123157.0,140395.0,11360.0
1679064576923881,123257.0,140574.0,11380.0
1679064576933881,123347.0,140664.0,11383.0
1679064576943881,123417.0,140743.0,11396.0
1679064576953881,123454.0,140783.0,11396.0
1679064576962881,123522.0,140814.0,11375.0
1679064576973881,123555.0,140833.0,11391.0
1679064576982881,123586.0,140865.0,11400.0
1679064576993881,123619.0,140875.0,11396.0
1679064577003881,123645.0,140888.0,11413.0
1679064577013881,123647.0,140902.0,11402.0
1679064577022881,123640.0,140921.0,11421.0
1679064577033881,123652.0,140932.0,11412.0
1679064577043881,123648.0,140936.0,11418.0
1679064577053881,123637.0,140945.0,11410.0
1679064577062881,123653.0,140976.0,11411.0
1679064577073881,123643.0,140979.0,11417.0
1679064577083881,123628.0,140999.0,11419.0
1679064577093881,123584.0,140994.0,11419.0
1679064577103881,123547.0,141028.0,11412.0
1679064577112881,123620.0,141034.0,11403.0
1679064577123881,123610.0,141071.0,11392.0
1679064577132881,123621.0,141125.0,11375.0
1679064577143881,123592.0,141156.0,11402.0
1679064577152881,123573.0,141150.0,11402.0
1679064577163881,123576.0,141144.0,11393.0
1679064577172881,123591.0,141148.0,11409.0
1679064577183881,123606.0,141140.0,11411.0
1679064577192881,123668.0,141139.0,11378.0
1679064577203881,123623.0,141140.0,11415.0
1679064577212881,123636.0,141175.0,11421.0
1679064577223881,123650.0,141164.0,11413.0
1679064577233881,123659.0,141183.0,11421.0
1679064577243881,123694.0,141193.0,11414.0
1679064577253881,123701.0,141123.0,11411.0
1679064577262881,123721.0,141180.0,11403.0
1679064577273881,123741.0,141184.0,11407.0
1679064577283881,123752.0,141189.0,11418.0
1679064577293881,123746.0,141221.0,11424.0
1679064577302881,123746.0,141209.0,11423.0
1679064577313881,123768.0,141218.0,11418.0
1679064577323881,123782.0,141238.0,11418.0
1679064577333881,123779.0,141246.0,11428.0
1679064577342881,123779.0,141243.0,11425.0
1679064577353881,123783.0,141244.0,11425.0
1679064577362881,123791.0,141258.0,11432.0
1679064577373881,123798.0,141269.0,11431.0
1679064577382881,123804.0,141250.0,11427.0
1679064577393881,123809.0,141230.0,11443.0
1679064577403881,123792.0,141251.0,11437.0
1679064577413881,123815.0,141233.0,11440.0
1679064577422881,123821.0,141163.0,11449.0
1679064577433881,123810.0,141162.0,11455.0
1679064577443881,123813.0,141178.0,11443.0
1679064577453881,123808.0,141185.0,11445.0
1679064577462881,123833.0,141178.0,11447.0
1679064577472881,123754.0,141227.0,11441.0
1679064577483881,123819.0,141218.0,11438.0
1679064577493881,123818.0,141200.0,11449.0
1679064577503881,123813.0,141230.0,11452.0
1679064577512881,123820.0,141209.0,11450.0
1679064577523881,123818.0,141209.0,11452.0
1679064577533881,123807.0,141175.0,11451.0
1679064577543881,123825.0,141200.0,11466.0
