time,ecg,hr,rr,marker
1679064901882347846,-0.613,84
1679064901890043886,-0.523
1679064901897739926,-0.062
1679064901905435966,-0.05
1679064901913132006,-0.1,,757
1679064901920828046,-0.006
1679064901928524086,0.014
1679064901936220126,0.004
1679064901943916166,0.031
1679064901951612206,0.02
1679064901959308246,-0.027
1679064901967004286,-0.029
1679064901974700326,0.014
1679064901982396366,0.033
1679064901990092406,0.012
1679064901997788446,0.025
1679064902005484486,0.073
1679064902013180526,0.091
1679064902020876566,0.106
1679064902028572606,0.139
1679064902036268646,0.162
1679064902043964686,0.17500000000000002
1679064902051660726,0.20800000000000002
1679064902059356766,0.246
1679064902067052806,0.269
1679064902074748846,0.273
1679064902082444886,0.24
1679064902090140926,0.169
1679064902097836966,0.125
1679064902105533006,0.135
1679064902113229046,0.139
1679064902120925086,0.121
1679064902128621126,0.091
1679064902136317166,0.058
1679064902144013206,0.035
1679064902151709246,0.041
1679064902159405286,0.056
1679064902167101326,0.048
1679064902174797366,0.031
1679064902182493406,0.043000000000000003
1679064902190189446,0.066
1679064902197885486,0.077
1679064902205581526,0.08700000000000001
1679064902213277566,0.116
1679064902220973606,0.131
1679064902228669646,0.125
1679064902236365686,0.139
1679064902244061726,0.177
1679064902251757766,0.194
1679064902259453806,0.185
1679064902267149846,0.189
1679064902274845886,0.202
1679064902282541926,0.20400000000000001
1679064902290237966,0.185
1679064902297934006,0.16
1679064902305630046,0.154
1679064902313326086,0.14100000000000001
1679064902321022126,0.108
1679064902328718166,0.079
1679064902336414206,0.058
1679064902344110246,0.043000000000000003
1679064902351806286,0.035
1679064902359502326,0.033
1679064902367198366,0.037
1679064902374894406,0.039
1679064902382590446,0.041
1679064902390286486,0.058
1679064902397982526,0.075
1679064902405678566,0.064
1679064902413374606,0.054
1679064902421070646,0.07
1679064902428766686,0.089
1679064902436462726,0.089
1679064902444158794,0.089,83
1679064902451854416,0.089
1679064902459550038,0.083
1679064902467245660,0.073
1679064902474941282,0.054
1679064902482636904,0.025
1679064902490332526,-0.018000000000000002
1679064902498028148,-0.058
1679064902505723770,-0.06
1679064902513419392,-0.045
1679064902521115014,-0.06
1679064902528810636,-0.108
1679064902536506258,-0.14400000000000002
1679064902544201880,-0.169
1679064902551897502,-0.16
1679064902559593124,0.10200000000000001
1679064902567288746,0.709
1679064902574984368,1.183
1679064902582679990,0.766
1679064902590375612,-0.392
1679064902598071234,-0.926
1679064902605766856,-0.47100000000000003
1679064902613462478,-0.2
1679064902621158100,-0.352
1679064902628853722,-0.34400000000000003
1679064902636549344,-0.258
1679064902644244966,-0.292
1679064902651940588,-0.292,,742
1679064902659636210,-0.231
1679064902667331832,-0.202
1679064902675027454,-0.198
1679064902682723076,-0.181
1679064902690418698,-0.15
1679064902698114320,-0.116
1679064902705809942,-0.096
1679064902713505564,-0.07
1679064902721201186,-0.031
1679064902728896808,-0.004
1679064902736592430,0.006
1679064902744288052,0.029
1679064902751983674,0.073
1679064902759679296,0.10400000000000001
1679064902767374918,0.114
1679064902775070540,0.116
1679064902782766162,0.127
1679064902790461784,0.139
1679064902798157406,0.14100000000000001
1679064902805853028,0.152
1679064902813548650,0.169
1679064902821244272,0.148
1679064902828939894,0.096
1679064902836635516,0.075
1679064902844331138,0.075
1679064902852026760,0.064
1679064902859722382,0.043000000000000003
1679064902867418004,0.029
1679064902875113626,0.035
1679064902882809248,0.048
1679064902890504870,0.056
1679064902898200492,0.075
1679064902905896114,0.1
1679064902913591736,0.10200000000000001
1679064902921287358,0.098
1679064902928982980,0.125
1679064902936678602,0.156
1679064902944374224,0.169
1679064902952069846,0.17300000000000001
1679064902959765468,0.183
1679064902967461090,0.196
1679064902975156712,0.2
1679064902982852334,0.20400000000000001
1679064902990547956,0.223
1679064902998243578,0.24
1679064903005939224,0.227
1679064903013635543,0.212
1679064903021331862,0.221
1679064903029028181,0.221
1679064903036724500,0.183
1679064903044420819,0.146
1679064903052117138,0.137
1679064903059813457,0.137
1679064903067509776,0.123
1679064903075206095,0.093
1679064903082902414,0.077
1679064903090598733,0.018000000000000002
1679064903098295052,-0.10400000000000001
1679064903105991371,-0.156
1679064903113687690,-0.11800000000000001
1679064903121384009,-0.112
1679064903129080328,-0.131
1679064903136776647,-0.116
1679064903144472966,-0.11
1679064903152169285,-0.123
1679064903159865604,-0.10400000000000001
1679064903167561923,-0.054
1679064903175258242,-0.01
1679064903182954561,0.004
1679064903190650880,-0.035
1679064903198347199,-0.106
1679064903206043518,-0.135
1679064903213739837,-0.14100000000000001
1679064903221436156,-0.17300000000000001
1679064903229132475,-0.181
1679064903236828794,-0.169
1679064903244525113,-0.177
1679064903252221432,-0.192
1679064903259917751,-0.162
1679064903267614070,0.066
1679064903275310389,0.615
1679064903283006708,1.162
1679064903290703027,0.991
1679064903298399346,-0.022
1679064903306095665,-0.732
1679064903313791984,-0.438
1679064903321488303,-0.106
1679064903329184622,-0.242
1679064903336880941,-0.28300000000000003
1679064903344577260,-0.171
1679064903352273579,-0.158
1679064903359969898,-0.164
1679064903367666217,-0.125
1679064903375362536,-0.114
1679064903383058855,-0.10200000000000001,,727
1679064903390755174,-0.066
1679064903398451493,-0.043000000000000003
1679064903406147812,-0.025
1679064903413844131,0.008
1679064903421540450,0.022
1679064903429236769,0.027
1679064903436933088,0.058
1679064903444629407,0.1
1679064903452325726,0.123
1679064903460022045,0.131
1679064903467718364,0.139
1679064903475414683,0.16
1679064903483111002,0.177
1679064903490807321,0.181
1679064903498503640,0.192
1679064903506199959,0.202
1679064903513896278,0.192
1679064903521592597,0.179
1679064903529288916,0.196
1679064903536985235,0.212
1679064903544681554,0.196
1679064903552377873,0.158
1679064903560074192,0.106
1679064903567770516,0.045,83
1679064903575466695,0.016
1679064903583162874,0.02
1679064903590859053,0.004
1679064903598555232,-0.073
1679064903606251411,-0.166
1679064903613947590,-0.2
1679064903621643769,-0.171
1679064903629339948,-0.14400000000000002
1679064903637036127,-0.139
1679064903644732306,-0.129
1679064903652428485,-0.11
1679064903660124664,-0.093
1679064903667820843,-0.079
1679064903675517022,-0.054
1679064903683213201,-0.018000000000000002
1679064903690909380,-0.002
1679064903698605559,-0.01
1679064903706301738,-0.004
1679064903713997917,0.029
1679064903721694096,0.05
1679064903729390275,0.052000000000000005
1679064903737086454,0.062
1679064903744782633,0.075
1679064903752478812,0.068
1679064903760174991,0.041
1679064903767871170,0.027
1679064903775567349,0.039
1679064903783263528,0.043000000000000003
1679064903790959707,0.022
1679064903798655886,0.018000000000000002
1679064903806352065,0.016
1679064903814048244,-0.02
1679064903821744423,-0.041
1679064903829440602,-0.02
1679064903837136781,-0.018000000000000002
1679064903844832960,-0.031
1679064903852529139,-0.018000000000000002
1679064903860225318,0.008
1679064903867921497,0.02
1679064903875617676,0.016
1679064903883313855,0.018000000000000002
1679064903891010034,0.054
1679064903898706213,0.1
1679064903906402392,0.127
1679064903914098571,0.121
1679064903921794750,0.062
1679064903929490929,-0.004
1679064903937187108,-0.033
1679064903944883287,-0.054
1679064903952579466,-0.064
1679064903960275645,-0.056
1679064903967971824,-0.062
1679064903975668003,-0.089
1679064903983364182,-0.081
1679064903991060361,0.108
1679064903998756540,0.622
1679064904006452719,1.193
1679064904014148898,1.12
1679064904021845077,0.139
1679064904029541256,-0.676
1679064904037237435,-0.423
1679064904044933614,0.008
1679064904052629793,-0.08700000000000001
1679064904060325972,-0.185
1679064904068022151,-0.098
1679064904075718330,-0.083
1679064904083414509,-0.106
1679064904091110688,-0.08700000000000001
1679064904098806867,-0.11
1679064904106503046,-0.17300000000000001
1679064904114199225,-0.192,,735
1679064904121895404,-0.169
1679064904129591638,-0.135
1679064904137287678,-0.106
1679064904144983718,-0.08700000000000001
1679064904152679758,-0.075
1679064904160375798,-0.054
1679064904168071838,-0.045
1679064904175767878,-0.06
1679064904183463918,-0.075
1679064904191159958,-0.05
1679064904198855998,-0.02
1679064904206552038,-0.029
1679064904214248078,-0.037
1679064904221944118,-0.012
1679064904229640158,0.012
1679064904237336198,0.014
1679064904245032238,0.012
1679064904252728278,0.027
1679064904260424318,0.035
1679064904268120358,0.029
1679064904275816398,0.018000000000000002
1679064904283512438,0.02
1679064904291208478,0.018000000000000002
1679064904298904518,-0.022
1679064904306600558,-0.066
1679064904314296598,-0.054
1679064904321992638,-0.027
1679064904329688678,-0.029
1679064904337384718,-0.027
1679064904345080758,0.004
1679064904352776798,0.025
1679064904360472838,0.029
1679064904368168878,0.056
1679064904375864918,0.096
1679064904383560958,0.106
1679064904391256998,0.1
1679064904398953038,0.11800000000000001
1679064904406649078,0.15
1679064904414345118,0.154
1679064904422041158,0.154
1679064904429737198,0.177
1679064904437433238,0.185
1679064904445129278,0.17300000000000001
1679064904452825318,0.17500000000000002
1679064904460521358,0.181
1679064904468217398,0.189
1679064904475913438,0.189
1679064904483609478,0.171
1679064904491305518,0.156
1679064904499001558,0.14400000000000002
1679064904506697598,0.129
1679064904514393638,0.121
1679064904522089678,0.116
1679064904529785718,0.11800000000000001
1679064904537481758,0.125
1679064904545177798,0.098
1679064904552873838,0.058
1679064904560569878,0.06
1679064904568265918,0.07
1679064904575961958,0.054
1679064904583657998,0.05
1679064904591354038,0.079
1679064904599050078,0.1
1679064904606746118,0.081
1679064904614442158,0.064
1679064904622138198,0.077
1679064904629834238,0.056
1679064904637530278,-0.037
1679064904645226318,-0.091
1679064904652922358,-0.068
1679064904660618398,-0.054
1679064904668314438,-0.033
1679064904676010478,-0.014
1679064904683706518,-0.05
1679064904691402584,-0.073,83
1679064904699098206,-0.029
1679064904706793828,0.17500000000000002
1679064904714489450,0.64
1679064904722185072,1.079
1679064904729880694,0.8180000000000001
1679064904737576316,-0.202
1679064904745271938,-0.811
1679064904752967560,-0.463
1679064904760663182,-0.15
1679064904768358804,-0.223
1679064904776054426,-0.20600000000000002
1679064904783750048,-0.133
1679064904791445670,-0.166
1679064904799141292,-0.20400000000000001
1679064904806836914,-0.202
1679064904814532536,-0.187
1679064904822228158,-0.154
1679064904829923780,-0.116
1679064904837619402,-0.10200000000000001
1679064904845315024,-0.089,,727
1679064904853010646,-0.06
1679064904860706268,-0.033
1679064904868401890,-0.02
1679064904876097512,0.006
1679064904883793134,0.052000000000000005
1679064904891488756,0.079
1679064904899184378,0.081
1679064904906880000,0.098
1679064904914575622,0.135
1679064904922271244,0.154
1679064904929966866,0.156
1679064904937662488,0.164
1679064904945358110,0.166
1679064904953053732,0.156
1679064904960749354,0.158
1679064904968444976,0.177
1679064904976140598,0.179
1679064904983836220,0.135
1679064904991531842,0.07
1679064904999227464,0.056
1679064905006923086,0.077
1679064905014618708,0.075
1679064905022314330,0.064
1679064905030009952,0.062
1679064905037705574,0.035
1679064905045401196,-0.006
1679064905053096818,-0.002
1679064905060792440,0.035
1679064905068488062,0.052000000000000005
1679064905076183684,0.048
1679064905083879306,0.033
1679064905091574928,0.033
1679064905099270550,0.066
1679064905106966172,0.085
1679064905114661794,0.037
1679064905122357416,-0.02
1679064905130053038,-0.033
1679064905137748660,-0.027
1679064905145444282,-0.002
1679064905153139904,0.037
1679064905160835526,0.06
1679064905168531148,0.058
1679064905176226770,0.052000000000000005
1679064905183922392,0.07
1679064905191618014,0.093
1679064905199313636,0.096
1679064905207009258,0.106
1679064905214704880,0.121
1679064905222400502,0.089
1679064905230096124,0.045
1679064905237791746,0.056
1679064905245487368,0.085
1679064905253183018,0.08700000000000001
1679064905260879058,0.085
1679064905268575098,0.083
1679064905276271138,0.075
1679064905283967178,0.064
1679064905291663218,0.056
1679064905299359258,0.077
1679064905307055298,0.11800000000000001
1679064905314751338,0.091
1679064905322447378,0.0
1679064905330143418,-0.039
1679064905337839458,-0.01
1679064905345535498,-0.004
1679064905353231538,-0.027
1679064905360927578,-0.029
1679064905368623618,-0.012
1679064905376319658,-0.014
1679064905384015698,-0.054
1679064905391711738,-0.027
1679064905399407778,0.28500000000000003
1679064905407103818,0.866
1679064905414799858,1.231
1679064905422495898,0.715
1679064905430191938,-0.379
1679064905437887978,-0.72
1679064905445584018,-0.225
1679064905453280058,-0.056
1679064905460976098,-0.225
1679064905468672138,-0.181
1679064905476368178,-0.093
1679064905484064218,-0.116
1679064905491760258,-0.116
1679064905499456298,-0.121
1679064905507152338,-0.14100000000000001
1679064905514848378,-0.10200000000000001
1679064905522544418,-0.048
1679064905530240458,-0.048
1679064905537936498,-0.062
1679064905545632538,-0.043000000000000003
1679064905553328578,-0.02,,712
1679064905561024618,-0.004
1679064905568720658,0.029
1679064905576416698,0.07
1679064905584112738,0.083
1679064905591808778,0.079
1679064905599504818,0.091
1679064905607200858,0.08700000000000001
1679064905614896898,0.014
1679064905622592938,-0.052000000000000005
1679064905630288978,-0.041
1679064905637985018,-0.029
1679064905645681058,-0.05
1679064905653377098,-0.039
1679064905661073138,-0.01
1679064905668769178,-0.004
1679064905676465218,-0.031
1679064905684161258,-0.068
1679064905691857298,-0.077
1679064905699553338,-0.064
1679064905707249378,-0.06
1679064905714945418,-0.054
1679064905722641458,-0.031
1679064905730337498,-0.018000000000000002
1679064905738033538,-0.02
1679064905745729578,0.0
1679064905753425618,0.037
1679064905761121658,0.064
1679064905768817698,0.064
1679064905776513738,0.043000000000000003
1679064905784209778,0.02
1679064905791905818,0.02
1679064905799601858,0.035
1679064905807297898,0.052000000000000005
1679064905814993966,0.066,83
1679064905822690424,0.066
1679064905830386882,0.06
1679064905838083340,0.077
1679064905845779798,0.106
1679064905853476256,0.121
1679064905861172714,0.11800000000000001
1679064905868869172,0.112
1679064905876565630,0.114
1679064905884262088,0.093
1679064905891958546,0.045
1679064905899655004,0.041
1679064905907351462,0.066
1679064905915047920,0.052000000000000005
1679064905922744378,0.031
1679064905930440836,0.037
1679064905938137294,0.02
1679064905945833752,-0.004
1679064905953530210,0.014
1679064905961226668,0.045
1679064905968923126,0.062
1679064905976619584,0.077
1679064905984316042,0.066
1679064905992012500,0.039
1679064905999708958,0.035
1679064906007405416,0.037
1679064906015101874,0.022
1679064906022798332,0.006
1679064906030494790,-0.018000000000000002
1679064906038191248,-0.039
1679064906045887706,-0.056
1679064906053584164,-0.033
1679064906061280622,0.242
1679064906068977080,0.86
1679064906076673538,1.348
1679064906084369996,0.9470000000000001
1679064906092066454,-0.177
1679064906099762912,-0.678
1679064906107459370,-0.248
1679064906115155828,-0.056
1679064906122852286,-0.302
1679064906130548744,-0.34
1679064906138245202,-0.242
1679064906145941660,-0.273
1679064906153638118,-0.298
1679064906161334576,-0.254
1679064906169031034,-0.225
1679064906176727492,-0.21
1679064906184423950,-0.192
1679064906192120408,-0.185
1679064906199816866,-0.166
1679064906207513324,-0.131
1679064906215209782,-0.108
1679064906222906240,-0.091
1679064906230602698,-0.06
1679064906238299156,-0.035
1679064906245995614,-0.029
1679064906253692072,-0.012
1679064906261388530,0.018000000000000002,,710
1679064906269084988,0.018000000000000002
1679064906276781446,-0.022
1679064906284477904,-0.052000000000000005
1679064906292174362,-0.035
1679064906299870820,-0.016
1679064906307567278,-0.014
1679064906315263736,-0.004
1679064906322960194,0.016
1679064906330656652,0.006
1679064906338353110,-0.029
1679064906346049568,-0.039
1679064906353746026,-0.029
1679064906361442484,-0.027
1679064906369138942,-0.039
1679064906376835432,-0.043000000000000003
1679064906384531472,-0.031
1679064906392227512,-0.014
1679064906399923552,-0.004
1679064906407619592,0.02
1679064906415315632,0.045
1679064906423011672,0.022
1679064906430707712,-0.029
1679064906438403752,-0.029
1679064906446099792,0.012
1679064906453795832,0.022
1679064906461491872,0.012
1679064906469187912,0.02
1679064906476883952,0.041
1679064906484579992,0.054
1679064906492276032,0.062
1679064906499972072,0.081
1679064906507668112,0.1
1679064906515364152,0.085
1679064906523060192,0.05
1679064906530756232,0.054
1679064906538452272,0.081
1679064906546148312,0.083
1679064906553844352,0.079
1679064906561540392,0.091
1679064906569236432,0.10200000000000001
1679064906576932472,0.098
1679064906584628512,0.106
1679064906592324552,0.146
1679064906600020592,0.181
1679064906607716632,0.187
1679064906615412672,0.181
1679064906623108712,0.133
1679064906630804752,0.041
1679064906638500792,-0.004
1679064906646196832,-0.014
1679064906653892872,-0.043000000000000003
1679064906661588912,-0.054
1679064906669284952,-0.041
1679064906676980992,-0.035
1679064906684677032,-0.043000000000000003
1679064906692373072,-0.027
1679064906700069112,0.21
1679064906707765152,0.809
1679064906715461192,1.342
1679064906723157232,0.995
1679064906730853272,-0.108
1679064906738549312,-0.605
1679064906746245352,-0.156
1679064906753941392,0.106
1679064906761637432,-0.048
1679064906769333472,-0.062
1679064906777029512,0.018000000000000002
1679064906784725552,-0.006
1679064906792421592,-0.029
1679064906800117632,-0.006
1679064906807813672,-0.014
1679064906815509712,-0.041
1679064906823205752,-0.056
1679064906830901792,-0.07
1679064906838597832,-0.081
1679064906846293872,-0.081
1679064906853989912,-0.07
1679064906861685952,-0.043000000000000003
1679064906869381992,-0.018000000000000002
1679064906877078032,-0.01
1679064906884774072,-0.006
1679064906892470112,0.016
1679064906900166152,0.039
1679064906907862192,0.041
1679064906915558232,0.043000000000000003
1679064906923254272,0.06
1679064906930950312,0.054
1679064906938646380,0.033,83
1679064906946342420,0.045
1679064906954038460,0.075
1679064906961734500,0.083
1679064906969430540,0.064
1679064906977126580,0.033
1679064906984822620,0.008
1679064906992518660,-0.027,,724
1679064907000214700,-0.085
1679064907007910740,-0.137
1679064907015606780,-0.17500000000000002
1679064907023302820,-0.212
1679064907030998860,-0.227
1679064907038694900,-0.2
1679064907046390940,-0.164
1679064907054086980,-0.152
1679064907061783020,-0.146
1679064907069479060,-0.127
1679064907077175100,-0.1
1679064907084871140,-0.081
1679064907092567180,-0.068
1679064907100263220,-0.037
1679064907107959260,-0.01
1679064907115655300,-0.014
1679064907123351340,-0.045
1679064907131047380,-0.08700000000000001
1679064907138743420,-0.11
1679064907146439460,-0.10400000000000001
1679064907154135500,-0.093
1679064907161831540,-0.089
1679064907169527580,-0.077
1679064907177223620,-0.066
1679064907184919660,-0.05
1679064907192615700,-0.022
1679064907200311740,-0.01
1679064907208007780,-0.014
1679064907215703820,0.012
1679064907223399860,0.066
1679064907231095900,0.10200000000000001
1679064907238791940,0.112
1679064907246487980,0.096
1679064907254184020,0.043000000000000003
1679064907261880060,-0.002
1679064907269576100,-0.006
1679064907277272140,0.012
1679064907284968180,0.033
1679064907292664220,0.041
1679064907300360260,0.022
1679064907308056300,0.0
1679064907315752340,0.112
1679064907323448380,0.5690000000000001
1679064907331144420,1.212
1679064907338840460,1.354
1679064907346536500,0.511
1679064907354232540,-0.434
1679064907361928580,-0.34
1679064907369624620,0.123
1679064907377320660,0.085
1679064907385016700,-0.025
1679064907392712740,0.05
1679064907400408780,0.064
1679064907408104820,0.043000000000000003
1679064907415800860,0.079
1679064907423496900,0.098
1679064907431192940,0.10200000000000001
1679064907438888980,0.114
1679064907446585020,0.114
1679064907454281060,0.123
1679064907461977100,0.154
1679064907469673140,0.181
1679064907477369180,0.187
1679064907485065220,0.187
1679064907492761260,0.20400000000000001
1679064907500457328,0.215,84
1679064907508152950,0.20600000000000002
1679064907515848572,0.21
1679064907523544194,0.215
1679064907531239816,0.16
1679064907538935438,0.068
1679064907546631060,0.008
1679064907554326682,-0.014
1679064907562022304,-0.029
1679064907569717926,-0.045
1679064907577413548,-0.058
1679064907585109170,-0.058
1679064907592804792,-0.075
1679064907600500414,-0.11
1679064907608196036,-0.127
1679064907615891658,-0.129
1679064907623587280,-0.164
1679064907631282902,-0.233
1679064907638978524,-0.265
1679064907646674146,-0.24
1679064907654369768,-0.221
1679064907662065390,-0.223
1679064907669761012,-0.20800000000000002
1679064907677456634,-0.183
1679064907685152256,-0.166
1679064907692847878,-0.148
1679064907700543500,-0.114,,714
1679064907708239122,-0.089
1679064907715934744,-0.089
1679064907723630366,-0.08700000000000001
1679064907731325988,-0.058
1679064907739021610,-0.027
1679064907746717232,-0.027
1679064907754412854,-0.045
1679064907762108476,-0.056
1679064907769804098,-0.052000000000000005
1679064907777499720,-0.039
1679064907785195342,-0.022
1679064907792890964,-0.004
1679064907800586586,0.008
1679064907808282208,0.004
1679064907815977830,0.008
1679064907823673452,0.031
1679064907831369074,0.062
1679064907839064696,0.091
1679064907846760318,0.121
1679064907854455940,0.148
1679064907862151562,0.152
1679064907869847184,0.11800000000000001
1679064907877542806,0.096
1679064907885238428,0.121
1679064907892934050,0.146
1679064907900629672,0.129
1679064907908325294,0.127
1679064907916020916,0.156
1679064907923716538,0.15
1679064907931412160,0.131
1679064907939107782,0.321
1679064907946803404,0.887
1679064907954499026,1.461
1679064907962194648,1.26
1679064907969890270,0.221
1679064907977585892,-0.41100000000000003
1679064907985281514,-0.043000000000000003
1679064907992977136,0.271
1679064908000672758,0.11800000000000001
1679064908008368380,0.089
1679064908016064002,0.17500000000000002
1679064908023759624,0.148
1679064908031455246,0.139
1679064908039150868,0.17300000000000001
1679064908046846490,0.162
1679064908054542112,0.164
1679064908062237758,0.20800000000000002
1679064908069934216,0.221
1679064908077630674,0.189
1679064908085327132,0.162
1679064908093023590,0.164
1679064908100720048,0.156
1679064908108416506,0.1
1679064908116112964,0.064
1679064908123809422,0.081
1679064908131505880,0.031
1679064908139202338,-0.066
1679064908146898796,-0.073
1679064908154595254,-0.029
1679064908162291712,-0.039
1679064908169988170,-0.068
1679064908177684628,-0.058
1679064908185381086,-0.037
1679064908193077544,-0.027
1679064908200774002,-0.014
1679064908208470460,-0.004
1679064908216166918,-0.016
1679064908223863376,-0.05
1679064908231559834,-0.093
1679064908239256292,-0.14400000000000002
1679064908246952750,-0.192
1679064908254649208,-0.227
1679064908262345666,-0.263
1679064908270042124,-0.279
1679064908277738582,-0.244
1679064908285435040,-0.219
1679064908293131498,-0.227
1679064908300827956,-0.2
1679064908308524414,-0.154
1679064908316220872,-0.166
1679064908323917330,-0.185
1679064908331613788,-0.14400000000000002
1679064908339310246,-0.10400000000000001
1679064908347006704,-0.106
1679064908354703162,-0.106
1679064908362399620,-0.089
1679064908370096078,-0.121
1679064908377792536,-0.185
1679064908385488994,-0.164
1679064908393185452,-0.064,,690
1679064908400881910,-0.012
1679064908408578368,-0.029
1679064908416274826,-0.029
1679064908423971284,-0.012
1679064908431667742,-0.008
1679064908439364200,0.012
1679064908447060658,0.025
1679064908454757116,0.012
1679064908462453574,0.012
1679064908470150032,0.035
1679064908477846490,0.05
1679064908485542948,0.054
1679064908493239406,0.05
1679064908500935864,0.0
1679064908508632322,-0.056
1679064908516328780,-0.029
1679064908524025238,0.022
1679064908531721696,0.022
1679064908539418154,0.014
1679064908547114612,0.01
1679064908554811070,0.002
1679064908562507528,0.0
1679064908570203986,0.062
1679064908577900444,0.35000000000000003
1679064908585596902,0.905
1679064908593293360,1.29
1679064908600989818,0.8200000000000001
1679064908608686276,-0.202
1679064908616382734,-0.511
1679064908624079226,-0.07,85
1679064908631775266,0.077
1679064908639471306,-0.07
1679064908647167346,-0.056
1679064908654863386,-0.002
1679064908662559426,-0.008
1679064908670255466,0.02
1679064908677951506,0.048
1679064908685647546,0.035
1679064908693343586,0.045
1679064908701039626,0.068
1679064908708735666,0.035
1679064908716431706,0.01
1679064908724127746,0.039
1679064908731823786,0.037
1679064908739519826,0.004
1679064908747215866,0.022
1679064908754911906,0.07
1679064908762607946,0.079
1679064908770303986,0.056
1679064908778000026,0.035
1679064908785696066,0.041
1679064908793392106,0.052000000000000005
1679064908801088146,0.054
1679064908808784186,0.066
1679064908816480226,0.079
1679064908824176266,0.073
1679064908831872306,0.07
1679064908839568346,0.085
1679064908847264386,0.093
1679064908854960426,0.068
1679064908862656466,0.033
1679064908870352506,0.01
1679064908878048546,0.004
1679064908885744586,-0.002
1679064908893440626,-0.002
1679064908901136666,0.004
1679064908908832706,-0.006
1679064908916528746,-0.027
1679064908924224786,-0.027
1679064908931920826,-0.022
1679064908939616866,-0.043000000000000003
1679064908947312906,-0.07
1679064908955008946,-0.089
1679064908962704986,-0.1
1679064908970401026,-0.1
1679064908978097066,-0.11800000000000001
1679064908985793106,-0.15
1679064908993489146,-0.131
1679064909001185186,-0.10200000000000001
1679064909008881226,-0.121
1679064909016577266,-0.127
1679064909024273306,-0.093
1679064909031969346,-0.089
1679064909039665386,-0.11800000000000001
1679064909047361426,-0.127
1679064909055057466,-0.1,,663
1679064909062753506,-0.073
1679064909070449546,-0.056
1679064909078145586,0.0
1679064909085841626,0.048
1679064909093537666,0.008
1679064909101233706,-0.045
1679064909108929746,-0.037
1679064909116625786,0.006
1679064909124321826,0.045
1679064909132017866,0.043000000000000003
1679064909139713906,-0.016
1679064909147409946,-0.075
1679064909155105986,-0.11
1679064909162802026,-0.123
1679064909170498066,-0.1
1679064909178194106,-0.068
1679064909185890174,-0.054
1679064909193586214,-0.037
1679064909201282254,-0.016
1679064909208978294,-0.012
1679064909216674334,0.014
1679064909224370374,0.212
1679064909232066414,0.6880000000000001
1679064909239762454,1.204
1679064909247458494,1.06
1679064909255154534,-0.002
1679064909262850574,-0.774
1679064909270546614,-0.425
1679064909278242654,-0.041
1679064909285938694,-0.2
1679064909293634734,-0.223
1679064909301330774,-0.062
1679064909309026814,-0.066
1679064909316722854,-0.08700000000000001
1679064909324418894,-0.027
1679064909332114934,-0.016
1679064909339810974,-0.031
1679064909347507014,0.004
1679064909355203054,0.058
1679064909362899094,0.079
1679064909370595134,0.085
1679064909378291174,0.10400000000000001
1679064909385987214,0.133
1679064909393683254,0.152
1679064909401379294,0.166
1679064909409075334,0.2
1679064909416771374,0.227
1679064909424467414,0.219
1679064909432163454,0.189
1679064909439859494,0.171
1679064909447555534,0.164
1679064909455251574,0.154
1679064909462947614,0.133
1679064909470643654,0.1
1679064909478339694,0.06
1679064909486035734,0.043000000000000003
1679064909493731774,0.05
1679064909501427814,0.045
1679064909509123854,0.025
1679064909516819894,-0.012
1679064909524515934,-0.035
1679064909532211974,-0.022
1679064909539908014,-0.01
1679064909547604054,-0.008
1679064909555300094,-0.002
1679064909562996134,0.01
1679064909570692174,0.022
1679064909578388214,0.037
1679064909586084254,0.056
1679064909593780294,0.058
1679064909601476334,0.027
1679064909609172374,-0.014
1679064909616868414,-0.039
1679064909624564454,-0.043000000000000003
1679064909632260494,-0.037
1679064909639956534,-0.06
1679064909647652574,-0.125
1679064909655348614,-0.154
1679064909663044654,-0.14100000000000001
1679064909670740694,-0.152
1679064909678436734,-0.158
1679064909686132774,-0.139
1679064909693828814,-0.135,,639
1679064909701524854,-0.15
1679064909709220894,-0.14400000000000002
1679064909716916934,-0.14400000000000002
1679064909724612974,-0.177
1679064909732309014,-0.185
1679064909740005054,-0.16
1679064909747701122,-0.154,86
1679064909755397162,-0.162
1679064909763093202,-0.15
1679064909770789242,-0.125
1679064909778485282,-0.098
1679064909786181322,-0.07
1679064909793877362,-0.052000000000000005
1679064909801573402,-0.018000000000000002
1679064909809269442,0.002
1679064909816965482,-0.06
1679064909824661522,-0.14100000000000001
1679064909832357562,-0.125
1679064909840053602,-0.093
1679064909847749642,-0.11
1679064909855445682,-0.10400000000000001
1679064909863141722,-0.062
1679064909870837762,-0.048
1679064909878533802,-0.066
1679064909886229842,0.012
1679064909893925882,0.41500000000000004
1679064909901621922,1.058
1679064909909317962,1.338
1679064909917014002,0.674
1679064909924710042,-0.35000000000000003
1679064909932406082,-0.486
1679064909940102122,0.002
1679064909947798162,0.098
1679064909955494202,-0.008
1679064909963190242,0.056
1679064909970886282,0.077
1679064909978582322,0.027
1679064909986278362,0.062
1679064909993974402,0.10200000000000001
1679064910001670442,0.083
1679064910009366482,0.10400000000000001
1679064910017062522,0.146
1679064910024758562,0.139
1679064910032454602,0.129
1679064910040150642,0.169
1679064910047846682,0.20400000000000001
1679064910055542722,0.20400000000000001
1679064910063238762,0.202
1679064910070934802,0.20400000000000001
1679064910078630842,0.187
1679064910086326882,0.171
1679064910094022922,0.177
1679064910101718962,0.196
1679064910109415002,0.198
1679064910117111042,0.166
1679064910124807082,0.146
1679064910132503122,0.166
1679064910140199162,0.179
1679064910147895202,0.14400000000000002
1679064910155591242,0.085
1679064910163287282,0.06
1679064910170983322,0.045
1679064910178679362,0.008
1679064910186375402,-0.01
1679064910194071442,0.006
1679064910201767482,0.018000000000000002
1679064910209463522,-0.012
1679064910217159562,-0.06
1679064910224855602,-0.058
1679064910232551642,-0.05
1679064910240247682,-0.075
1679064910247943722,-0.089
1679064910255639762,-0.10400000000000001
1679064910263335802,-0.131
1679064910271031842,-0.131
1679064910278727882,-0.10400000000000001
1679064910286423922,-0.089
1679064910294119962,-0.10200000000000001
1679064910301816002,-0.116
1679064910309512070,-0.108
1679064910317208110,-0.08700000000000001,,619
1679064910324904150,-0.077
1679064910332600190,-0.077
1679064910340296230,-0.064
1679064910347992270,-0.066
1679064910355688310,-0.11
1679064910363384350,-0.152
1679064910371080390,-0.139
1679064910378776430,-0.116
1679064910386472470,-0.127
1679064910394168510,-0.135
1679064910401864550,-0.114
1679064910409560590,-0.089
1679064910417256630,-0.08700000000000001
1679064910424952670,-0.077
1679064910432648710,-0.048
1679064910440344750,-0.041
1679064910448040790,-0.06
1679064910455736830,-0.07
1679064910463432870,-0.06
1679064910471128910,-0.035
1679064910478824950,-0.004
1679064910486520990,0.0
1679064910494217030,-0.02
1679064910501913070,-0.039
1679064910509609110,-0.031
1679064910517305150,-0.002
1679064910525001190,0.012
1679064910532697230,0.01
1679064910540393270,0.01
1679064910548089310,0.022
1679064910555785350,0.033
1679064910563481390,0.106
1679064910571177430,0.455
1679064910578873470,1.066
1679064910586569510,1.3980000000000001
1679064910594265550,0.8160000000000001
1679064910601961590,-0.223
1679064910609657630,-0.43
1679064910617353670,0.062
1679064910625049710,0.17500000000000002
1679064910632745750,0.027
1679064910640441790,0.098
1679064910648137830,0.16
1679064910655833870,0.077
1679064910663529910,0.037
1679064910671225950,0.068
1679064910678921990,0.07
1679064910686618030,0.058
1679064910694314070,0.05
1679064910702010110,0.027
1679064910709706150,-0.006
1679064910717402190,-0.027
1679064910725098230,-0.018000000000000002
1679064910732794270,0.002
1679064910740490310,0.018000000000000002
1679064910748186350,0.037
1679064910755882390,0.054
1679064910763578430,0.06
1679064910771274470,0.064
1679064910778970510,0.07
1679064910786666550,0.081
1679064910794362590,0.098
1679064910802058630,0.11
1679064910809754670,0.098
1679064910817450710,0.083
1679064910825146750,0.114
1679064910832842790,0.148
1679064910840538830,0.139
1679064910848234870,0.11
1679064910855930910,0.056
1679064910863626950,-0.014
1679064910871323018,-0.056,89
1679064910879018640,-0.083
1679064910886714262,-0.108
1679064910894409884,-0.116
1679064910902105506,-0.11800000000000001
1679064910909801128,-0.114
1679064910917496750,-0.096
1679064910925192372,-0.112
1679064910932887994,-0.16,,621
1679064910940583616,-0.17300000000000001
1679064910948279238,-0.177
1679064910955974860,-0.217
1679064910963670482,-0.23700000000000002
1679064910971366104,-0.21
1679064910979061726,-0.181
1679064910986757348,-0.181
1679064910994452970,-0.187
1679064911002148592,-0.164
1679064911009844214,-0.133
1679064911017539836,-0.116
1679064911025235458,-0.10200000000000001
1679064911032931080,-0.08700000000000001
1679064911040626702,-0.106
1679064911048322324,-0.114
1679064911056017946,-0.068
1679064911063713568,-0.02
1679064911071409190,-0.01
1679064911079104812,-0.022
1679064911086800434,-0.02
1679064911094496056,0.01
1679064911102191678,0.041
1679064911109887300,0.041
1679064911117582922,0.039
1679064911125278544,0.058
1679064911132974166,0.05
1679064911140669788,0.022
1679064911148365410,0.031
1679064911156061032,0.041
1679064911163756654,0.006
1679064911171452276,-0.006
1679064911179147898,0.022
1679064911186843520,0.016
1679064911194539142,-0.039
1679064911202234764,-0.064
1679064911209930386,-0.037
1679064911217626008,-0.031
1679064911225321630,-0.062
1679064911233017252,-0.056
1679064911240712874,-0.01
1679064911248408496,0.008
1679064911256104118,0.048
1679064911263799740,0.34400000000000003
1679064911271495362,0.935
1679064911279190984,1.323
1679064911286886606,0.8200000000000001
1679064911294582228,-0.231
1679064911302277850,-0.515
1679064911309973472,-0.056
1679064911317669094,0.077
1679064911325364716,-0.031
1679064911333060338,0.041
1679064911340755960,0.091
1679064911348451582,0.052000000000000005
1679064911356147204,0.07
1679064911363842826,0.11
1679064911371538448,0.106
1679064911379234070,0.108
1679064911386929692,0.135
1679064911394625314,0.166
1679064911402320936,0.179
1679064911410016558,0.164
1679064911417712180,0.166
1679064911425407802,0.20400000000000001
1679064911433103448,0.24,90
1679064911440799906,0.246
1679064911448496364,0.227
1679064911456192822,0.20800000000000002
1679064911463889280,0.189
1679064911471585738,0.137
1679064911479282196,0.085
1679064911486978654,0.068
1679064911494675112,0.037
1679064911502371570,-0.029
1679064911510068028,-0.043000000000000003
1679064911517764486,-0.014
1679064911525460944,-0.02
1679064911533157402,-0.048
1679064911540853860,-0.062
1679064911548550318,-0.091
1679064911556246776,-0.129
1679064911563943234,-0.139
1679064911571639692,-0.129,,637
1679064911579336150,-0.11800000000000001
1679064911587032608,-0.125
1679064911594729066,-0.146
1679064911602425524,-0.129
1679064911610121982,-0.079
1679064911617818440,-0.062
1679064911625514898,-0.05
1679064911633211356,-0.014
1679064911640907814,0.004
1679064911648604272,0.004
1679064911656300730,0.006
1679064911663997188,-0.031
1679064911671693646,-0.10200000000000001
1679064911679390104,-0.135
1679064911687086562,-0.14100000000000001
1679064911694783020,-0.164
1679064911702479478,-0.17500000000000002
1679064911710175936,-0.162
1679064911717872394,-0.139
1679064911725568852,-0.121
1679064911733265310,-0.11
1679064911740961768,-0.106
1679064911748658226,-0.1
1679064911756354684,-0.081
1679064911764051142,-0.06
1679064911771747600,-0.058
1679064911779444058,-0.052000000000000005
1679064911787140516,-0.018000000000000002
1679064911794836974,0.004
1679064911802533432,0.002
1679064911810229890,0.022
1679064911817926348,0.052000000000000005
1679064911825622806,0.048
1679064911833319264,0.064
1679064911841015722,0.121
1679064911848712180,0.166
1679064911856408638,0.166
1679064911864105096,0.135
1679064911871801554,0.116
1679064911879498012,0.133
1679064911887194470,0.137
1679064911894890928,0.137
1679064911902587386,0.169
1679064911910283844,0.187
1679064911917980302,0.158
1679064911925676760,0.166
1679064911933373218,0.384
1679064911941069676,0.903
1679064911948766134,1.4020000000000001
1679064911956462592,1.173
1679064911964159050,0.108
1679064911971855508,-0.584
1679064911979551966,-0.24
1679064911987248424,0.121
1679064911994944916,0.008
1679064912002640956,-0.033
1679064912010336996,0.041
1679064912018033036,0.022
1679064912025729076,0.016
1679064912033425116,0.06
1679064912041121156,0.07
1679064912048817196,0.068
1679064912056513236,0.081
1679064912064209276,0.05
1679064912071905316,0.0
1679064912079601356,0.014
1679064912087297396,0.056
1679064912094993436,0.054
1679064912102689476,0.039
1679064912110385516,0.045
1679064912118081556,0.043000000000000003
1679064912125777596,0.014
1679064912133473636,-0.018000000000000002
1679064912141169676,-0.041
1679064912148865716,-0.052000000000000005
1679064912156561756,-0.06
1679064912164257796,-0.091
1679064912171953836,-0.154
1679064912179649876,-0.217
1679064912187345916,-0.254
1679064912195041956,-0.275
1679064912202737996,-0.275
1679064912210434036,-0.277
1679064912218130076,-0.302,,649
1679064912225826116,-0.308
1679064912233522156,-0.292
1679064912241218196,-0.298
1679064912248914236,-0.311
1679064912256610276,-0.28300000000000003
1679064912264306316,-0.244
1679064912272002356,-0.217
1679064912279698396,-0.20600000000000002
1679064912287394436,-0.194
1679064912295090476,-0.166
1679064912302786516,-0.139
1679064912310482556,-0.123
1679064912318178596,-0.093
1679064912325874636,-0.062
1679064912333570676,-0.054
1679064912341266716,-0.048
1679064912348962756,-0.014
1679064912356658796,0.014
1679064912364354836,0.02
1679064912372050876,0.031
1679064912379746916,0.05
1679064912387442956,0.056
1679064912395138996,0.048
1679064912402835036,0.06
1679064912410531076,0.10200000000000001
1679064912418227116,0.123
1679064912425923156,0.089
1679064912433619196,0.052000000000000005
1679064912441315236,0.062
1679064912449011276,0.093
1679064912456707316,0.10200000000000001
1679064912464403356,0.1
1679064912472099396,0.093
1679064912479795436,0.085
1679064912487491476,0.10400000000000001
1679064912495187516,0.15
1679064912502883556,0.2
1679064912510579596,0.233
1679064912518275636,0.233
1679064912525971676,0.2
1679064912533667716,0.179
1679064912541363756,0.198
1679064912549059796,0.212
1679064912556755864,0.21,90
1679064912564451904,0.219
1679064912572147944,0.227
1679064912579843984,0.217
1679064912587540024,0.202
1679064912595236064,0.317
1679064912602932104,0.741
1679064912610628144,1.317
1679064912618324184,1.413
1679064912626020224,0.5710000000000001
1679064912633716264,-0.404
1679064912641412304,-0.386
1679064912649108344,0.07
1679064912656804384,0.062
1679064912664500424,-0.045
1679064912672196464,0.012
1679064912679892504,-0.016
1679064912687588544,-0.075
1679064912695284584,-0.045
1679064912702980624,-0.039
1679064912710676664,-0.05
1679064912718372704,-0.014
1679064912726068744,0.012
1679064912733764784,0.018000000000000002
1679064912741460824,0.045
1679064912749156864,0.06
1679064912756852904,0.041
1679064912764548944,0.022
1679064912772244984,0.029
1679064912779941024,0.025
1679064912787637064,-0.012
1679064912795333104,-0.031
1679064912803029144,-0.016
1679064912810725184,-0.006
1679064912818421224,-0.012
1679064912826117264,-0.014
1679064912833813304,-0.008
1679064912841509344,-0.02
1679064912849205384,-0.031
1679064912856901424,-0.012
1679064912864597464,0.012
1679064912872293504,0.006
1679064912879989544,-0.027
1679064912887685584,-0.054,,665
1679064912895381624,-0.06
1679064912903077664,-0.064
1679064912910773704,-0.079
1679064912918469744,-0.096
1679064912926165784,-0.114
1679064912933861824,-0.137
1679064912941557864,-0.14100000000000001
1679064912949253904,-0.114
1679064912956949944,-0.077
1679064912964645984,-0.058
1679064912972342024,-0.05
1679064912980038064,-0.037
1679064912987734104,-0.018000000000000002
1679064912995430144,-0.002
1679064913003126184,0.012
1679064913010822224,0.033
1679064913018518264,0.052000000000000005
1679064913026214304,0.037
1679064913033910344,0.025
1679064913041606384,0.048
1679064913049302424,0.075
1679064913056998464,0.075
1679064913064694504,0.07
1679064913072390544,0.083
1679064913080086584,0.091
1679064913087782624,0.091
1679064913095478664,0.10200000000000001
1679064913103174704,0.129
1679064913110870744,0.14400000000000002
1679064913118566812,0.131
1679064913126262852,0.123
1679064913133958892,0.146
1679064913141654932,0.179
1679064913149350972,0.20800000000000002
1679064913157047012,0.233
1679064913164743052,0.23500000000000001
1679064913172439092,0.185
1679064913180135132,0.08700000000000001
1679064913187831172,0.012
1679064913195527212,0.004
1679064913203223252,-0.012
1679064913210919292,-0.083
1679064913218615332,-0.10200000000000001
1679064913226311372,-0.06
1679064913234007412,-0.07
1679064913241703452,-0.068
1679064913249399492,0.212
1679064913257095532,0.8240000000000001
1679064913264791572,1.2670000000000001
1679064913272487612,0.8180000000000001
1679064913280183652,-0.273
1679064913287879692,-0.68
1679064913295575732,-0.231
1679064913303271772,-0.02
1679064913310967812,-0.14100000000000001
1679064913318663852,-0.093
1679064913326359892,-0.018000000000000002
1679064913334055932,-0.056
1679064913341751972,-0.043000000000000003
1679064913349448012,0.012
1679064913357144052,0.012
1679064913364840092,0.012
1679064913372536132,0.056
1679064913380232172,0.081
1679064913387928212,0.07
1679064913395624252,0.077
1679064913403320292,0.10400000000000001
1679064913411016332,0.11
1679064913418712372,0.081
1679064913426408412,0.064
1679064913434104452,0.07
1679064913441800492,0.05
1679064913449496532,0.004
1679064913457192572,-0.006
1679064913464888612,0.004
1679064913472584652,-0.002
1679064913480280692,-0.014
1679064913487976732,-0.025
1679064913495672772,-0.025
1679064913503368812,-0.008
1679064913511064852,-0.002
1679064913518760892,-0.016
1679064913526456932,-0.018000000000000002
1679064913534152972,-0.039
1679064913541849012,-0.08700000000000001
1679064913549545052,-0.096
1679064913557241092,-0.073
1679064913564937132,-0.07,,678
1679064913572633172,-0.077
1679064913580329212,-0.07
1679064913588025252,-0.056
1679064913595721292,-0.037
1679064913603417332,-0.022
1679064913611113372,0.002
1679064913618809412,0.033
1679064913626505452,0.037
1679064913634201492,0.031
1679064913641897532,0.06
1679064913649593572,0.091
1679064913657289612,0.083
1679064913664985652,0.062
1679064913672681692,0.045
1679064913680377760,0.035,89
1679064913688073730,0.025
1679064913695769700,-0.004
1679064913703465670,-0.027
1679064913711161640,-0.027
1679064913718857610,-0.029
1679064913726553580,-0.033
1679064913734249550,-0.02
1679064913741945520,-0.012
1679064913749641490,-0.045
1679064913757337460,-0.073
1679064913765033430,-0.062
1679064913772729400,-0.07
1679064913780425370,-0.073
1679064913788121340,-0.022
1679064913795817310,0.033
1679064913803513280,0.054
1679064913811209250,0.037
1679064913818905220,0.01
1679064913826601190,0.012
1679064913834297160,0.027
1679064913841993130,0.037
1679064913849689100,0.064
1679064913857385070,0.081
1679064913865081040,0.073
1679064913872777010,0.068
1679064913880472980,0.129
1679064913888168950,0.40700000000000003
1679064913895864920,0.9560000000000001
1679064913903560890,1.331
1679064913911256860,0.8280000000000001
1679064913918952830,-0.244
1679064913926648800,-0.58
1679064913934344770,-0.129
1679064913942040740,0.058
1679064913949736710,-0.052000000000000005
1679064913957432680,-0.033
1679064913965128650,0.016
1679064913972824620,0.016
1679064913980520590,0.045
1679064913988216560,0.056
1679064913995912530,0.035
1679064914003608500,0.054
1679064914011304470,0.08700000000000001
1679064914019000440,0.08700000000000001
1679064914026696410,0.091
1679064914034392380,0.121
1679064914042088350,0.135
1679064914049784320,0.137
1679064914057480290,0.154
1679064914065176260,0.177
1679064914072872230,0.189
1679064914080568200,0.179
1679064914088264170,0.177
1679064914095960140,0.202
1679064914103656110,0.20800000000000002
1679064914111352080,0.164
1679064914119048050,0.116
1679064914126744020,0.093
1679064914134439990,0.075
1679064914142135960,0.048
1679064914149831930,0.008
1679064914157527900,-0.05
1679064914165223870,-0.112
1679064914172919840,-0.164
1679064914180615810,-0.179
1679064914188311780,-0.162
1679064914196007750,-0.21
1679064914203703720,-0.28500000000000003
1679064914211399690,-0.277
1679064914219095660,-0.25
1679064914226791630,-0.279
1679064914234487600,-0.28500000000000003
1679064914242183620,-0.24
1679064914249879312,-0.21
1679064914257575004,-0.20600000000000002,,693
1679064914265270696,-0.185
1679064914272966388,-0.154
1679064914280662080,-0.154
1679064914288357772,-0.194
1679064914296053464,-0.20800000000000002
1679064914303749156,-0.17500000000000002
1679064914311444848,-0.154
1679064914319140540,-0.164
1679064914326836232,-0.154
1679064914334531924,-0.116
1679064914342227616,-0.098
1679064914349923308,-0.093
1679064914357619000,-0.079
1679064914365314692,-0.062
1679064914373010384,-0.054
1679064914380706076,-0.043000000000000003
1679064914388401768,-0.029
1679064914396097460,-0.037
1679064914403793152,-0.073
1679064914411488844,-0.07
1679064914419184536,-0.031
1679064914426880228,0.006
1679064914434575920,0.018000000000000002
1679064914442271612,-0.004
1679064914449967304,-0.02
1679064914457662996,0.0
1679064914465358688,0.016
1679064914473054380,0.02
1679064914480750072,0.05
1679064914488445764,0.081
1679064914496141456,0.068
1679064914503837148,0.077
1679064914511532840,0.331
1679064914519228532,0.924
1679064914526924224,1.446
1679064914534619916,1.145
1679064914542315608,0.079
1679064914550011300,-0.461
1679064914557706992,-0.054
1679064914565402684,0.219
1679064914573098376,0.093
1679064914580794068,0.114
1679064914588489760,0.20400000000000001
1679064914596185452,0.169
1679064914603881144,0.164
1679064914611576836,0.212
1679064914619272528,0.217
1679064914626968220,0.221
1679064914634663912,0.231
1679064914642359604,0.183
1679064914650055296,0.129
1679064914657750988,0.139
1679064914665446680,0.164
1679064914673142372,0.169
1679064914680838064,0.169
1679064914688533756,0.171
1679064914696229448,0.15
1679064914703925140,0.089
1679064914711620832,0.048
1679064914719316524,0.06
1679064914727012216,0.068
1679064914734707908,0.045
1679064914742403600,0.029
1679064914750099292,0.041
1679064914757794984,0.062
1679064914765490676,0.07
1679064914773186368,0.068
1679064914780882060,0.06
1679064914788577752,0.041
1679064914796273444,0.0
1679064914803969138,-0.043000000000000003,89
1679064914811665596,-0.066
1679064914819362054,-0.114
1679064914827058512,-0.20600000000000002
1679064914834754970,-0.256
1679064914842451428,-0.23500000000000001
1679064914850147886,-0.219
1679064914857844344,-0.227
1679064914865540802,-0.221
1679064914873237260,-0.202
1679064914880933718,-0.187
1679064914888630176,-0.185
1679064914896326634,-0.196
1679064914904023092,-0.187
1679064914911719550,-0.171
1679064914919416008,-0.181
1679064914927112466,-0.177,,672
1679064914934808924,-0.14100000000000001
1679064914942505382,-0.123
1679064914950201840,-0.123
1679064914957898298,-0.11
1679064914965594756,-0.093
1679064914973291214,-0.089
1679064914980987672,-0.083
1679064914988684130,-0.058
1679064914996380588,-0.031
1679064915004077046,-0.031
1679064915011773504,-0.043000000000000003
1679064915019469962,-0.025
1679064915027166420,0.02
1679064915034862878,0.048
1679064915042559336,0.066
1679064915050255794,0.079
1679064915057952252,0.045
1679064915065648710,0.012
1679064915073345168,0.029
1679064915081041626,0.058
1679064915088738084,0.077
1679064915096434542,0.083
1679064915104131000,0.075
1679064915111827458,0.056
1679064915119523916,0.108
1679064915127220374,0.436
1679064915134916832,1.06
1679064915142613290,1.442
1679064915150309748,0.866
1679064915158006206,-0.256
1679064915165702664,-0.538
1679064915173399122,-0.022
1679064915181095580,0.139
1679064915188792038,-0.012
1679064915196488496,0.014
1679064915204184954,0.033
1679064915211881412,-0.06
1679064915219577870,-0.064
1679064915227274328,-0.008
1679064915234970786,-0.002
1679064915242667244,-0.006
1679064915250363702,0.012
1679064915258060160,0.037
1679064915265756618,0.07
1679064915273453076,0.096
1679064915281149534,0.10400000000000001
1679064915288845992,0.116
1679064915296542450,0.139
1679064915304238908,0.148
1679064915311935366,0.133
1679064915319631824,0.129
1679064915327328282,0.14400000000000002
1679064915335024740,0.133
1679064915342721198,0.11
1679064915350417656,0.116
1679064915358114114,0.131
1679064915365810606,0.127
1679064915373506646,0.123
1679064915381202686,0.108
1679064915388898726,0.068
1679064915396594766,0.031
1679064915404290806,0.016
1679064915411986846,0.008
1679064915419682886,-0.018000000000000002
1679064915427378926,-0.08700000000000001
1679064915435074966,-0.14100000000000001
1679064915442771006,-0.121
1679064915450467046,-0.093
1679064915458163086,-0.10200000000000001
1679064915465859126,-0.11800000000000001
1679064915473555166,-0.131
1679064915481251206,-0.14400000000000002
1679064915488947246,-0.162
1679064915496643286,-0.171
1679064915504339326,-0.152
1679064915512035366,-0.14100000000000001
1679064915519731406,-0.158
1679064915527427446,-0.154
1679064915535123486,-0.127
1679064915542819526,-0.114
1679064915550515566,-0.114
1679064915558211606,-0.1
1679064915565907646,-0.091
1679064915573603686,-0.093
1679064915581299726,-0.089
1679064915588995766,-0.068
1679064915596691806,-0.045,,665
1679064915604387846,-0.039
1679064915612083886,-0.05
1679064915619779926,-0.05
1679064915627475966,-0.056
1679064915635172006,-0.085
1679064915642868046,-0.081
1679064915650564086,-0.037
1679064915658260126,-0.012
1679064915665956166,-0.012
1679064915673652206,-0.027
1679064915681348246,-0.037
1679064915689044286,-0.02
1679064915696740326,-0.008
1679064915704436366,-0.025
1679064915712132406,-0.058
1679064915719828446,-0.10400000000000001
1679064915727524486,-0.14100000000000001
1679064915735220526,-0.137
1679064915742916566,0.056
1679064915750612606,0.592
1679064915758308646,1.187
1679064915766004686,1.089
1679064915773700726,0.1
1679064915781396766,-0.63
1679064915789092806,-0.333
1679064915796788846,0.045
1679064915804484886,-0.045
1679064915812180926,-0.073
1679064915819876966,0.035
1679064915827573006,0.041
1679064915835269046,0.033
1679064915842965086,0.073
1679064915850661126,0.083
1679064915858357166,0.091
1679064915866053206,0.129
1679064915873749246,0.139
1679064915881445286,0.112
1679064915889141326,0.108
1679064915896837366,0.137
1679064915904533406,0.156
1679064915912229446,0.162
1679064915919925486,0.194
1679064915927621554,0.229,90
1679064915935318012,0.223
1679064915943014470,0.20800000000000002
1679064915950710928,0.233
1679064915958407386,0.26
1679064915966103844,0.248
1679064915973800302,0.202
1679064915981496760,0.158
1679064915989193218,0.137
1679064915996889676,0.108
1679064916004586134,0.07
1679064916012282592,0.062
1679064916019979050,0.048
1679064916027675508,-0.006
1679064916035371966,-0.039
1679064916043068424,-0.031
1679064916050764882,-0.029
1679064916058461340,-0.041
1679064916066157798,-0.048
1679064916073854256,-0.045
1679064916081550714,-0.037
1679064916089247172,-0.022
1679064916096943630,0.0
1679064916104640088,0.033
1679064916112336546,0.06
1679064916120033004,0.045
1679064916127729462,-0.004
1679064916135425920,-0.027
1679064916143122378,-0.025
1679064916150818836,-0.06
1679064916158515294,-0.096
1679064916166211752,-0.10400000000000001
1679064916173908210,-0.123
1679064916181604668,-0.131
1679064916189301126,-0.10400000000000001
1679064916196997584,-0.081
1679064916204694042,-0.096
1679064916212390500,-0.123
1679064916220086958,-0.164
1679064916227783416,-0.219
1679064916235479874,-0.23700000000000002
1679064916243176332,-0.219,,650
1679064916250872790,-0.20600000000000002
1679064916258569248,-0.2
1679064916266265706,-0.20600000000000002
1679064916273962164,-0.20400000000000001
1679064916281658622,-0.15
1679064916289355080,-0.091
1679064916297051538,-0.073
1679064916304747996,-0.068
1679064916312444454,-0.068
1679064916320140912,-0.075
1679064916327837370,-0.07
1679064916335533828,-0.054
1679064916343230286,-0.037
1679064916350926744,-0.029
1679064916358623202,-0.029
1679064916366319660,-0.045
1679064916374016118,-0.073
1679064916381712576,-0.016
1679064916389409034,0.325
1679064916397105492,0.937
1679064916404801950,1.281
1679064916412498408,0.674
1679064916420194866,-0.4
1679064916427891324,-0.58
1679064916435587782,-0.064
1679064916443284240,0.06
1679064916450980698,-0.041
1679064916458677156,0.037
1679064916466373614,0.098
1679064916474070072,0.077
1679064916481766530,0.096
1679064916489463020,0.125,91
1679064916497159060,0.135
1679064916504855100,0.154
1679064916512551140,0.17300000000000001
1679064916520247180,0.202
1679064916527943220,0.225
1679064916535639260,0.192
1679064916543335300,0.14100000000000001
1679064916551031340,0.156
1679064916558727380,0.2
1679064916566423420,0.20600000000000002
1679064916574119460,0.20600000000000002
1679064916581815500,0.223
1679064916589511540,0.23500000000000001
1679064916597207580,0.23500000000000001
1679064916604903620,0.244
1679064916612599660,0.23500000000000001
1679064916620295700,0.177
1679064916627991740,0.108
1679064916635687780,0.096
1679064916643383820,0.116
1679064916651079860,0.116
1679064916658775900,0.093
1679064916666471940,0.064
1679064916674167980,0.037
1679064916681864020,0.012
1679064916689560060,0.0
1679064916697256100,0.008
1679064916704952140,0.025
1679064916712648180,0.035
1679064916720344220,0.014
1679064916728040260,-0.039
1679064916735736300,-0.062
1679064916743432340,-0.043000000000000003
1679064916751128380,-0.039
1679064916758824420,-0.037
1679064916766520460,-0.012
1679064916774216500,-0.002
1679064916781912540,-0.018000000000000002
1679064916789608580,-0.031
1679064916797304620,-0.033
1679064916805000660,-0.06
1679064916812696700,-0.1
1679064916820392740,-0.1
1679064916828088780,-0.083
1679064916835784820,-0.089
1679064916843480860,-0.093
1679064916851176900,-0.085
1679064916858872940,-0.11
1679064916866568980,-0.166
1679064916874265020,-0.177
1679064916881961060,-0.15,,639
1679064916889657100,-0.137
1679064916897353140,-0.14400000000000002
1679064916905049180,-0.146
1679064916912745220,-0.139
1679064916920441260,-0.11800000000000001
1679064916928137300,-0.089
1679064916935833340,-0.048
1679064916943529380,-0.006
1679064916951225420,0.01
1679064916958921460,-0.012
1679064916966617500,-0.041
1679064916974313540,-0.025
1679064916982009580,0.004
1679064916989705620,0.0
1679064916997401660,-0.002
1679064917005097700,0.027
1679064917012793740,0.041
1679064917020489780,0.02
1679064917028185820,0.1
1679064917035881860,0.509
1679064917043577900,1.145
1679064917051273968,1.431
1679064917058970008,0.789
1679064917066666048,-0.267
1679064917074362088,-0.442
1679064917082058128,0.052000000000000005
1679064917089754168,0.14100000000000001
1679064917097450208,-0.002
1679064917105146248,0.06
1679064917112842288,0.091
1679064917120538328,0.048
1679064917128234368,0.068
1679064917135930408,0.05
1679064917143626448,-0.022
1679064917151322488,-0.012
1679064917159018528,0.031
1679064917166714568,0.029
1679064917174410608,0.031
1679064917182106648,0.058
1679064917189802688,0.079
1679064917197498728,0.093
1679064917205194768,0.11800000000000001
1679064917212890808,0.154
1679064917220586848,0.181
1679064917228282888,0.169
1679064917235978928,0.116
1679064917243674968,0.091
1679064917251371008,0.106
1679064917259067048,0.089
1679064917266763088,0.041
1679064917274459128,0.025
1679064917282155168,0.035
1679064917289851208,0.039
1679064917297547248,0.039
1679064917305243288,0.035
1679064917312939328,0.008
1679064917320635368,-0.037
1679064917328331408,-0.058
1679064917336027448,-0.041
1679064917343723488,-0.022
1679064917351419528,-0.031
1679064917359115568,-0.056
1679064917366811608,-0.066
1679064917374507648,-0.052000000000000005
1679064917382203688,-0.037
1679064917389899728,-0.014
1679064917397595768,0.016
1679064917405291808,0.027
1679064917412987848,0.018000000000000002
1679064917420683888,0.01
1679064917428379928,0.0
1679064917436075968,-0.018000000000000002
1679064917443772008,-0.045
1679064917451468048,-0.064
1679064917459164088,-0.073
1679064917466860128,-0.08700000000000001
1679064917474556168,-0.08700000000000001
1679064917482252208,-0.062
1679064917489948248,-0.048
1679064917497644288,-0.06
1679064917505340328,-0.07,,625
1679064917513036368,-0.058
1679064917520732408,-0.043000000000000003
1679064917528428448,-0.041
1679064917536124488,-0.031
1679064917543820528,-0.012
1679064917551516568,-0.012
1679064917559212608,-0.02
1679064917566908648,-0.004
1679064917574604688,0.02
1679064917582300728,0.027
1679064917589996768,0.029
1679064917597692808,0.031
1679064917605388848,0.025
1679064917613084916,0.033,93
1679064917620781374,0.043000000000000003
1679064917628477832,0.016
1679064917636174290,-0.01
1679064917643870748,-0.037
1679064917651567206,-0.085
1679064917659263664,-0.093
1679064917666960122,-0.056
1679064917674656580,-0.045
1679064917682353038,-0.07
1679064917690049496,-0.054
1679064917697745954,0.194
1679064917705442412,0.778
1679064917713138870,1.321
1679064917720835328,1.072
1679064917728531786,-0.002
1679064917736228244,-0.678
1679064917743924702,-0.35000000000000003
1679064917751621160,-0.004
1679064917759317618,-0.1
1679064917767014076,-0.123
1679064917774710534,-0.029
1679064917782406992,-0.033
1679064917790103450,-0.037
1679064917797799908,0.004
1679064917805496366,0.029
1679064917813192824,0.052000000000000005
1679064917820889282,0.085
1679064917828585740,0.08700000000000001
1679064917836282198,0.08700000000000001
1679064917843978656,0.10400000000000001
1679064917851675114,0.091
1679064917859371572,0.081
1679064917867068030,0.10400000000000001
1679064917874764488,0.125
1679064917882460946,0.11800000000000001
1679064917890157404,0.10400000000000001
1679064917897853862,0.10400000000000001
1679064917905550320,0.121
1679064917913246778,0.121
1679064917920943236,0.096
1679064917928639694,0.085
1679064917936336152,0.10200000000000001
1679064917944032610,0.11
1679064917951729068,0.114
1679064917959425526,0.129
1679064917967121984,0.129
1679064917974818442,0.10200000000000001
1679064917982514900,0.075
1679064917990211358,0.073
1679064917997907816,0.079
1679064918005604274,0.064
1679064918013300732,0.037
1679064918020997190,0.035
1679064918028693648,0.056
1679064918036390106,0.062
1679064918044086564,0.05
1679064918051783022,0.035
1679064918059479480,0.014
1679064918067175938,-0.014
1679064918074872396,-0.037
1679064918082568854,-0.033
1679064918090265312,-0.031
1679064918097961770,-0.058
1679064918105658228,-0.075
1679064918113354686,-0.062
1679064918121051144,-0.052000000000000005,,613
1679064918128747602,-0.054
1679064918136444060,-0.045
1679064918144140518,-0.031
1679064918151836976,-0.035
1679064918159533434,-0.045
1679064918167229892,-0.035
1679064918174926382,-0.008
1679064918182622422,0.0
1679064918190318462,-0.004
1679064918198014502,-0.006
1679064918205710542,0.0
1679064918213406582,-0.016
1679064918221102622,-0.056
1679064918228798662,-0.062
1679064918236494702,-0.054
1679064918244190742,-0.10400000000000001
1679064918251886782,-0.162
1679064918259582822,-0.14400000000000002
1679064918267278862,-0.108
1679064918274974902,-0.114
1679064918282670942,-0.125
1679064918290366982,-0.1
1679064918298063022,-0.058
1679064918305759062,-0.022
1679064918313455102,0.008
1679064918321151142,0.035
1679064918328847182,0.018000000000000002
1679064918336543222,-0.031
1679064918344239262,-0.056
1679064918351935302,-0.037
1679064918359631342,-0.012
1679064918367327382,-0.004
1679064918375023422,0.004
1679064918382719462,0.002
1679064918390415502,0.027
1679064918398111542,0.271
1679064918405807582,0.839
1679064918413503622,1.354
1679064918421199662,1.087
1679064918428895702,0.039
1679064918436591742,-0.542
1679064918444287782,-0.139
1679064918451983822,0.189
1679064918459679862,0.073
1679064918467375902,0.062
1679064918475071942,0.156
1679064918482767982,0.135
1679064918490464022,0.121
1679064918498160062,0.15
1679064918505856102,0.14100000000000001
1679064918513552142,0.121
1679064918521248182,0.123
1679064918528944222,0.131
1679064918536640262,0.15
1679064918544336302,0.166
1679064918552032342,0.169
1679064918559728382,0.181
1679064918567424422,0.2
1679064918575120462,0.21
1679064918582816502,0.217
1679064918590512542,0.20400000000000001
1679064918598208582,0.189
1679064918605904622,0.189
1679064918613600662,0.177
1679064918621296702,0.17300000000000001
1679064918628992742,0.181
1679064918636688782,0.181
1679064918644384822,0.179
1679064918652080862,0.189
1679064918659776902,0.171
1679064918667472942,0.114
1679064918675168982,0.068
1679064918682865022,0.031
1679064918690561062,-0.012
1679064918698257102,-0.045
1679064918705953142,-0.083
1679064918713649182,-0.106
1679064918721345222,-0.1
1679064918729041262,-0.091
1679064918736737332,-0.091,93,619
1679064918744433790,-0.091
1679064918752130248,-0.137
1679064918759826706,-0.198
1679064918767523164,-0.181
1679064918775219622,-0.14400000000000002
1679064918782916080,-0.152
1679064918790612538,-0.16
1679064918798308996,-0.14100000000000001
1679064918806005454,-0.131
1679064918813701912,-0.15
1679064918821398370,-0.192
1679064918829094828,-0.219
1679064918836791286,-0.23500000000000001
1679064918844487744,-0.265
1679064918852184202,-0.269
1679064918859880660,-0.24
1679064918867577118,-0.217
1679064918875273576,-0.20600000000000002
1679064918882970034,-0.196
1679064918890666492,-0.185
1679064918898362950,-0.169
1679064918906059408,-0.14400000000000002
1679064918913755866,-0.129
1679064918921452324,-0.114
1679064918929148782,-0.093
1679064918936845240,-0.079
1679064918944541698,-0.07
1679064918952238156,-0.037
1679064918959934614,-0.002
1679064918967631072,0.004
1679064918975327530,0.012
1679064918983023988,0.029
1679064918990720446,0.033
1679064918998416904,0.041
1679064919006113362,0.083
1679064919013809820,0.129
1679064919021506278,0.15
1679064919029202736,0.148
1679064919036899194,0.123
1679064919044595652,0.108
1679064919052292110,0.121
1679064919059988568,0.133
1679064919067685026,0.129
1679064919075381484,0.116
1679064919083077942,0.08700000000000001
1679064919090774400,0.056
1679064919098470858,0.075
1679064919106167316,0.281
1679064919113863774,0.784
1679064919121560232,1.285
1679064919129256690,1.116
1679064919136953148,0.131
1679064919144649606,-0.584
1679064919152346064,-0.3
1679064919160042522,0.081
1679064919167738980,0.01
1679064919175435438,-0.025
1679064919183131896,0.062
1679064919190828354,0.077
1679064919198524812,0.073
1679064919206221270,0.098
1679064919213917728,0.098
1679064919221614186,0.10400000000000001
1679064919229310644,0.137
1679064919237007102,0.152
1679064919244703560,0.154
1679064919252400018,0.146
1679064919260096476,0.093
1679064919267792934,0.045
1679064919275489392,0.052000000000000005
1679064919283185850,0.054
1679064919290882308,0.037
1679064919298578798,0.016
1679064919306274838,-0.014
1679064919313970878,-0.027
1679064919321666918,-0.035
1679064919329362958,-0.066
1679064919337058998,-0.079
1679064919344755038,-0.07
1679064919352451078,-0.106
1679064919360147118,-0.169
1679064919367843158,-0.179
1679064919375539198,-0.156
1679064919383235238,-0.17300000000000001,,643
1679064919390931278,-0.219
1679064919398627318,-0.242
1679064919406323358,-0.242
1679064919414019398,-0.242
1679064919421715438,-0.24
1679064919429411478,-0.215
1679064919437107518,-0.189
1679064919444803558,-0.192
1679064919452499598,-0.187
1679064919460195638,-0.148
1679064919467891678,-0.106
1679064919475587718,-0.089
1679064919483283758,-0.079
1679064919490979798,-0.056
1679064919498675838,-0.035
1679064919506371878,-0.02
1679064919514067918,-0.002
1679064919521763958,0.029
1679064919529459998,0.052000000000000005
1679064919537156038,0.048
1679064919544852078,0.045
1679064919552548118,0.07
1679064919560244158,0.1
1679064919567940198,0.098
1679064919575636238,0.073
1679064919583332278,0.058
1679064919591028318,0.064
1679064919598724358,0.07
1679064919606420398,0.077
1679064919614116438,0.106
1679064919621812478,0.123
1679064919629508518,0.112
1679064919637204558,0.114
1679064919644900598,0.14400000000000002
1679064919652596638,0.16
1679064919660292678,0.16
1679064919667988718,0.17300000000000001
1679064919675684758,0.185
1679064919683380798,0.185
1679064919691076838,0.181
1679064919698772878,0.192
1679064919706468918,0.212
1679064919714164958,0.231
1679064919721860998,0.244
1679064919729557038,0.269
1679064919737253078,0.304
1679064919744949118,0.302
1679064919752645158,0.24
1679064919760341198,0.152
1679064919768037238,0.075
1679064919775733278,0.037
1679064919783429318,0.039
1679064919791125358,0.048
1679064919798821398,0.054
1679064919806517438,0.035
1679064919814213478,0.062
1679064919821909518,0.375
1679064919829605558,0.968
1679064919837301598,1.296
1679064919844997638,0.718
1679064919852693678,-0.34
1679064919860389746,-0.59,93
1679064919868085786,-0.106
1679064919875781826,0.037
1679064919883477866,-0.089
1679064919891173906,-0.022
1679064919898869946,0.037
1679064919906565986,-0.008
1679064919914262026,-0.002
1679064919921958066,0.004
1679064919929654106,-0.075
1679064919937350146,-0.11800000000000001
1679064919945046186,-0.116
1679064919952742226,-0.14400000000000002
1679064919960438266,-0.169
1679064919968134306,-0.14100000000000001
1679064919975830346,-0.11
1679064919983526386,-0.10200000000000001
1679064919991222426,-0.096
1679064919998918466,-0.083
1679064920006614506,-0.062
1679064920014310546,-0.048
1679064920022006586,-0.043000000000000003
1679064920029702626,-0.027,,646
1679064920037398666,-0.01
1679064920045094706,-0.025
1679064920052790746,-0.048
1679064920060486786,-0.056
1679064920068182826,-0.079
1679064920075878866,-0.1
1679064920083574906,-0.093
1679064920091270946,-0.093
1679064920098966986,-0.11
1679064920106663026,-0.127
1679064920114359066,-0.131
1679064920122055106,-0.121
1679064920129751146,-0.114
1679064920137447186,-0.127
1679064920145143226,-0.127
1679064920152839266,-0.091
1679064920160535306,-0.058
1679064920168231346,-0.045
1679064920175927386,-0.029
1679064920183623426,-0.004
1679064920191319466,0.01
1679064920199015506,0.022
1679064920206711546,0.045
1679064920214407586,0.077
1679064920222103626,0.096
1679064920229799666,0.08700000000000001
1679064920237495706,0.091
1679064920245191746,0.123
1679064920252887786,0.139
1679064920260583826,0.116
1679064920268279866,0.056
1679064920275975906,0.008
1679064920283671946,0.006
1679064920291367986,0.016
1679064920299064026,0.018000000000000002
1679064920306760066,0.014
1679064920314456106,-0.018000000000000002
1679064920322152146,-0.052000000000000005
1679064920329848186,-0.037
1679064920337544226,-0.012
1679064920345240266,-0.004
1679064920352936306,0.006
1679064920360632346,0.027
1679064920368328386,0.035
1679064920376024426,0.033
1679064920383720466,0.045
1679064920391416506,0.073
1679064920399112546,0.093
1679064920406808586,0.079
1679064920414504626,0.035
1679064920422200694,0.022
1679064920429896734,0.043000000000000003
1679064920437592774,0.064
1679064920445288814,0.091
1679064920452984854,0.127
1679064920460680894,0.123
1679064920468376934,0.043000000000000003
1679064920476072974,-0.033
1679064920483769014,-0.025
1679064920491465054,0.008
1679064920499161094,-0.008
1679064920506857134,-0.022
1679064920514553174,0.002
1679064920522249214,0.016
1679064920529945254,0.004
1679064920537641294,0.108
1679064920545337334,0.53
1679064920553033374,1.118
1679064920560729414,1.292
1679064920568425454,0.548
1679064920576121494,-0.486
1679064920583817534,-0.592
1679064920591513574,-0.133
1679064920599209614,-0.1
1679064920606905654,-0.227
1679064920614601694,-0.152
1679064920622297734,-0.114
1679064920629993774,-0.14100000000000001
1679064920637689814,-0.108
1679064920645385854,-0.089
1679064920653081894,-0.10400000000000001
1679064920660777934,-0.075
1679064920668473974,-0.037
1679064920676170014,-0.029
1679064920683866054,-0.02
1679064920691562094,0.0,,665
1679064920699258134,0.02
1679064920706954174,0.035
1679064920714650214,0.056
1679064920722346254,0.089
1679064920730042294,0.112
1679064920737738334,0.112
1679064920745434374,0.11800000000000001
1679064920753130414,0.146
1679064920760826454,0.166
1679064920768522494,0.162
1679064920776218534,0.112
1679064920783914574,0.052000000000000005
1679064920791610614,0.048
1679064920799306654,0.058
1679064920807002694,0.027
1679064920814698734,0.012
1679064920822394774,0.004
1679064920830090814,-0.041
1679064920837786854,-0.066
1679064920845482894,-0.048
1679064920853178934,-0.037
1679064920860874974,-0.041
1679064920868571014,-0.029
1679064920876267054,-0.014
1679064920883963094,-0.008
1679064920891659134,0.006
1679064920899355174,0.037
1679064920907051214,0.07
1679064920914747254,0.083
1679064920922443294,0.079
1679064920930139334,0.093
1679064920937835374,0.125
1679064920945531414,0.139
1679064920953227454,0.14400000000000002
1679064920960923494,0.16
1679064920968619534,0.171
1679064920976315574,0.164
1679064920984011642,0.169,92
1679064920991707682,0.192
1679064920999403722,0.21
1679064921007099762,0.20600000000000002
1679064921014795802,0.187
1679064921022491842,0.187
1679064921030187882,0.185
1679064921037883922,0.131
1679064921045579962,0.056
1679064921053276002,0.018000000000000002
1679064921060972042,0.0
1679064921068668082,-0.029
1679064921076364122,-0.056
1679064921084060162,-0.058
1679064921091756202,-0.05
1679064921099452242,-0.056
1679064921107148282,-0.066
1679064921114844322,-0.05
1679064921122540362,-0.033
1679064921130236402,-0.031
1679064921137932442,-0.018000000000000002
1679064921145628482,0.0
1679064921153324522,-0.01
1679064921161020562,-0.014
1679064921168716602,0.025
1679064921176412642,0.077
1679064921184108682,0.108
1679064921191804722,0.114
1679064921199500762,0.083
1679064921207196802,0.054
1679064921214892842,0.066
1679064921222588882,0.081
1679064921230284922,0.075
1679064921237980962,0.054
1679064921245677002,0.018000000000000002
1679064921253373042,-0.029
1679064921261069082,-0.045
1679064921268765122,0.127
1679064921276461162,0.615
1679064921284157202,1.131
1679064921291853242,0.987
1679064921299549282,-0.025
1679064921307245322,-0.853
1679064921314941362,-0.617
1679064921322637402,-0.181
1679064921330333442,-0.254
1679064921338029482,-0.338
1679064921345725522,-0.231
1679064921353421562,-0.194
1679064921361117602,-0.2
1679064921368813642,-0.164
1679064921376509682,-0.14400000000000002
1679064921384205722,-0.14100000000000001
1679064921391901762,-0.11800000000000001,,700
1679064921399597802,-0.096
1679064921407293842,-0.064
1679064921414989882,-0.022
1679064921422685922,-0.006
1679064921430381962,-0.014
1679064921438078002,0.01
1679064921445774042,0.058
1679064921453470082,0.083
1679064921461166122,0.096
1679064921468862162,0.116
1679064921476558202,0.133
1679064921484254242,0.131
1679064921491950282,0.131
1679064921499646322,0.14400000000000002
1679064921507342362,0.171
1679064921515038402,0.171
1679064921522734442,0.154
1679064921530430482,0.158
1679064921538126522,0.158
1679064921545822590,0.10400000000000001,91
1679064921553518630,0.06
1679064921561214670,0.054
1679064921568910710,0.014
1679064921576606750,-0.062
1679064921584302790,-0.106
1679064921591998830,-0.093
1679064921599694870,-0.07
1679064921607390910,-0.075
1679064921615086950,-0.081
1679064921622782990,-0.056
1679064921630479030,-0.022
1679064921638175070,-0.006
1679064921645871110,0.016
1679064921653567150,0.045
1679064921661263190,0.058
1679064921668959230,0.056
1679064921676655270,0.068
1679064921684351310,0.091
1679064921692047350,0.10400000000000001
1679064921699743390,0.108
1679064921707439430,0.11800000000000001
1679064921715135470,0.127
1679064921722831510,0.129
1679064921730527550,0.14100000000000001
1679064921738223590,0.166
1679064921745919630,0.183
1679064921753615670,0.17300000000000001
1679064921761311710,0.158
1679064921769007750,0.156
1679064921776703790,0.14100000000000001
1679064921784399830,0.10400000000000001
1679064921792095870,0.043000000000000003
1679064921799791910,0.0
1679064921807487950,0.0
1679064921815183990,0.002
1679064921822880030,-0.006
1679064921830576070,0.018000000000000002
1679064921838272110,0.041
1679064921845968150,0.02
1679064921853664190,-0.002
1679064921861360230,0.018000000000000002
1679064921869056270,0.056
1679064921876752310,0.089
1679064921884448350,0.112
1679064921892144390,0.125
1679064921899840430,0.125
1679064921907536470,0.1
1679064921915232510,0.081
1679064921922928550,0.10200000000000001
1679064921930624590,0.11800000000000001
1679064921938320630,0.089
1679064921946016670,0.062
1679064921953712710,0.07
1679064921961408750,0.077
1679064921969104790,0.093
1679064921976800830,0.294
1679064921984496870,0.797
1679064921992192910,1.2710000000000001
1679064921999888950,1.031
1679064922007584990,0.025
1679064922015281030,-0.594
1679064922022977070,-0.26
1679064922030673110,0.045
1679064922038369150,-0.064
1679064922046065190,-0.068
1679064922053761230,0.014
1679064922061457270,-0.02
1679064922069153310,-0.035
1679064922076849350,0.01
1679064922084545390,0.018000000000000002
1679064922092241430,0.004
1679064922099937470,0.029,,709
1679064922107633540,0.064
1679064922115329580,0.077
1679064922123025620,0.07
1679064922130721660,0.083
1679064922138417700,0.11800000000000001
1679064922146113740,0.14400000000000002
1679064922153809780,0.156
1679064922161505820,0.183
1679064922169201860,0.196
1679064922176897900,0.152
1679064922184593940,0.106
1679064922192289980,0.123
1679064922199986020,0.146
1679064922207682060,0.123
1679064922215378100,0.10400000000000001
1679064922223074140,0.121
1679064922230770180,0.133
1679064922238466220,0.131
1679064922246162260,0.135
1679064922253858300,0.131
1679064922261554340,0.093
1679064922269250380,0.05
1679064922276946420,0.016
1679064922284642460,-0.031
1679064922292338500,-0.108
1679064922300034540,-0.177
1679064922307730580,-0.187
1679064922315426620,-0.16
1679064922323122660,-0.15
1679064922330818700,-0.139
1679064922338514740,-0.10400000000000001
1679064922346210780,-0.075
1679064922353906820,-0.077
1679064922361602860,-0.075
1679064922369298900,-0.039
1679064922376994940,0.0
1679064922384690980,0.016
1679064922392387020,0.016
1679064922400083060,0.025
1679064922407779100,0.048
1679064922415475140,0.06
1679064922423171180,0.066
1679064922430867220,0.089
1679064922438563260,0.108
1679064922446259300,0.1
1679064922453955340,0.089
1679064922461651380,0.11
1679064922469347420,0.135
1679064922477043460,0.127
1679064922484739500,0.093
1679064922492435540,0.068
1679064922500131580,0.064
1679064922507827620,0.052000000000000005
1679064922515523660,0.033
1679064922523219700,0.02
1679064922530915740,-0.014
1679064922538611780,-0.052000000000000005
1679064922546307820,-0.054
1679064922554003860,-0.022
1679064922561699900,0.018000000000000002
1679064922569395940,0.062
1679064922577091980,0.096
1679064922584788020,0.108
1679064922592484060,0.083
1679064922600180100,0.045
1679064922607876140,0.052000000000000005
1679064922615572180,0.089
1679064922623268220,0.093
1679064922630964260,0.075
1679064922638660300,0.064
1679064922646356340,0.052000000000000005
1679064922654052380,0.016
1679064922661748420,0.083
1679064922669444488,0.459,89
1679064922677140528,1.043
1679064922684836568,1.246
1679064922692532608,0.511
1679064922700228648,-0.523
1679064922707924688,-0.605
1679064922715620728,-0.125
1679064922723316768,-0.10200000000000001
1679064922731012808,-0.229
1679064922738708848,-0.139
1679064922746404888,-0.131
1679064922754100928,-0.217
1679064922761796968,-0.2
1679064922769493008,-0.192
1679064922777189048,-0.252
1679064922784885088,-0.267
1679064922792581128,-0.269
1679064922800277168,-0.331
1679064922807973208,-0.363
1679064922815669248,-0.331,,713
1679064922823365288,-0.302
1679064922831061328,-0.279
1679064922838757368,-0.25
1679064922846453408,-0.215
1679064922854149448,-0.179
1679064922861845488,-0.16
1679064922869541528,-0.152
1679064922877237568,-0.125
1679064922884933608,-0.08700000000000001
1679064922892629648,-0.075
1679064922900325688,-0.079
1679064922908021728,-0.077
1679064922915717768,-0.056
1679064922923413808,-0.031
1679064922931109848,-0.02
1679064922938805888,-0.014
1679064922946501928,-0.012
1679064922954197968,-0.037
1679064922961894008,-0.064
1679064922969590048,-0.05
1679064922977286088,-0.022
1679064922984982128,-0.012
1679064922992678168,-0.01
1679064923000374208,0.004
1679064923008070248,0.025
1679064923015766288,0.035
1679064923023462328,0.025
1679064923031158368,0.031
1679064923038854408,0.058
1679064923046550448,0.054
1679064923054246488,0.041
1679064923061942528,0.066
1679064923069638568,0.098
1679064923077334608,0.10400000000000001
1679064923085030648,0.10200000000000001
1679064923092726688,0.112
1679064923100422728,0.127
1679064923108118768,0.127
1679064923115814808,0.135
1679064923123510848,0.16
1679064923131206888,0.177
1679064923138902928,0.169
1679064923146598968,0.171
1679064923154295008,0.2
1679064923161991048,0.221
1679064923169687088,0.227
1679064923177383128,0.233
1679064923185079168,0.23500000000000001
1679064923192775208,0.217
1679064923200471248,0.183
1679064923208167288,0.171
1679064923215863328,0.185
1679064923223559368,0.177
1679064923231255436,0.14100000000000001
1679064923238951476,0.14100000000000001
1679064923246647516,0.185
1679064923254343556,0.223
1679064923262039596,0.233
1679064923269735636,0.21
1679064923277431676,0.146
1679064923285127716,0.062
1679064923292823756,0.006
1679064923300519796,-0.033
1679064923308215836,-0.089
1679064923315911876,-0.127
1679064923323607916,-0.133
1679064923331303956,-0.133
1679064923338999996,-0.129
1679064923346696036,-0.004
1679064923354392076,0.432
1679064923362088116,1.035
1679064923369784156,1.154
1679064923377480196,0.28300000000000003
1679064923385176236,-0.73
1679064923392872276,-0.667
1679064923400568316,-0.154
1679064923408264356,-0.183
1679064923415960396,-0.313
1679064923423656436,-0.202
1679064923431352476,-0.156
1679064923439048516,-0.194
1679064923446744556,-0.154
1679064923454440596,-0.106
1679064923462136636,-0.112
1679064923469832676,-0.11
1679064923477528716,-0.068
1679064923485224756,-0.025
1679064923492920796,-0.004
1679064923500616836,-0.002
1679064923508312876,-0.018000000000000002
1679064923516008916,-0.037
1679064923523704956,-0.033
1679064923531400996,-0.01
1679064923539097036,0.012,,722
1679064923546793076,0.035
1679064923554489116,0.043000000000000003
1679064923562185156,0.039
1679064923569881196,0.054
1679064923577577236,0.077
1679064923585273276,0.081
1679064923592969316,0.077
1679064923600665356,0.081
1679064923608361396,0.093
1679064923616057436,0.1
1679064923623753476,0.091
1679064923631449516,0.08700000000000001
1679064923639145556,0.081
1679064923646841596,0.05
1679064923654537636,0.025
1679064923662233676,0.039
1679064923669929716,0.062
1679064923677625756,0.06
1679064923685321796,0.064
1679064923693017836,0.081
1679064923700713876,0.096
1679064923708409916,0.108
1679064923716105956,0.129
1679064923723801996,0.156
1679064923731498036,0.171
1679064923739194076,0.162
1679064923746890116,0.162
1679064923754586156,0.162
1679064923762282196,0.127
1679064923769978236,0.098
1679064923777674276,0.108
1679064923785370316,0.121
1679064923793066384,0.123,88
1679064923800762424,0.112
1679064923808458464,0.07
1679064923816154504,0.037
1679064923823850544,0.035
1679064923831546584,0.02
1679064923839242624,0.006
1679064923846938664,0.02
1679064923854634704,0.01
1679064923862330744,-0.035
1679064923870026784,-0.045
1679064923877722824,-0.029
1679064923885418864,-0.035
1679064923893114904,-0.037
1679064923900810944,-0.014
1679064923908506984,0.002
1679064923916203024,-0.025
1679064923923899064,-0.066
1679064923931595104,-0.045
1679064923939291144,0.004
1679064923946987184,0.025
1679064923954683224,0.031
1679064923962379264,0.02
1679064923970075304,-0.016
1679064923977771344,-0.033
1679064923985467384,-0.014
1679064923993163424,0.0
1679064924000859464,-0.008
1679064924008555504,-0.033
1679064924016251544,-0.054
1679064924023947584,-0.06
1679064924031643624,0.045
1679064924039339664,0.463
1679064924047035704,1.091
1679064924054731744,1.3
1679064924062427784,0.53
1679064924070123824,-0.507
1679064924077819864,-0.553
1679064924085515904,-0.058
1679064924093211944,-0.05
1679064924100907984,-0.215
1679064924108604024,-0.16
1679064924116300064,-0.121
1679064924123996104,-0.158
1679064924131692144,-0.14100000000000001
1679064924139388184,-0.10200000000000001
1679064924147084224,-0.093
1679064924154780264,-0.098
1679064924162476304,-0.093
1679064924170172344,-0.068
1679064924177868384,-0.037
1679064924185564424,-0.02
1679064924193260464,-0.012
1679064924200956504,0.004
1679064924208652544,0.022
1679064924216348584,0.033
1679064924224044624,0.05
1679064924231740664,0.081
1679064924239436704,0.10400000000000001
1679064924247132744,0.089
1679064924254828784,0.054
1679064924262524824,0.048
1679064924270220864,0.06,,729
1679064924277916904,0.058
1679064924285612944,0.052000000000000005
1679064924293308984,0.068
1679064924301005024,0.075
1679064924308701064,0.022
1679064924316397104,-0.048
1679064924324093144,-0.064
1679064924331789184,-0.066
1679064924339485224,-0.1
1679064924347181264,-0.108
1679064924354877332,-0.081
1679064924362573372,-0.066
1679064924370269412,-0.062
1679064924377965452,-0.043000000000000003
1679064924385661492,-0.027
1679064924393357532,-0.048
1679064924401053572,-0.085
1679064924408749612,-0.079
1679064924416445652,-0.043000000000000003
1679064924424141692,-0.039
1679064924431837732,-0.048
1679064924439533772,-0.027
1679064924447229812,0.002
1679064924454925852,0.01
1679064924462621892,0.018000000000000002
1679064924470317932,0.039
1679064924478013972,0.045
1679064924485710012,0.031
1679064924493406052,0.018000000000000002
1679064924501102092,0.006
1679064924508798132,0.0
1679064924516494172,-0.004
1679064924524190212,-0.012
1679064924531886252,0.0
1679064924539582292,0.027
1679064924547278332,0.031
1679064924554974372,0.041
1679064924562670412,0.068
1679064924570366452,0.073
1679064924578062492,0.064
1679064924585758532,0.081
1679064924593454572,0.10400000000000001
1679064924601150612,0.114
1679064924608846652,0.129
1679064924616542692,0.154
1679064924624238732,0.177
1679064924631934772,0.202
1679064924639630812,0.202
1679064924647326852,0.14100000000000001
1679064924655022892,0.093
1679064924662718932,0.08700000000000001
1679064924670414972,0.062
1679064924678111012,0.039
1679064924685807052,0.056
1679064924693503092,0.075
1679064924701199132,0.058
1679064924708895172,0.077
1679064924716591212,0.365
1679064924724287252,0.974
1679064924731983292,1.3980000000000001
1679064924739679332,0.914
1679064924747375372,-0.217
1679064924755071412,-0.651
1679064924762767452,-0.194
1679064924770463492,0.054
1679064924778159532,-0.054
1679064924785855572,-0.031
1679064924793551612,0.043000000000000003
1679064924801247652,0.004
1679064924808943692,-0.056
1679064924816639732,-0.116
1679064924824335772,-0.179
1679064924832031812,-0.196
1679064924839727852,-0.194
1679064924847423892,-0.21
1679064924855119932,-0.202
1679064924862815972,-0.158
1679064924870512012,-0.125
1679064924878208052,-0.1
1679064924885904092,-0.077
1679064924893600132,-0.062
1679064924901296172,-0.054
1679064924908992212,-0.039
1679064924916688280,-0.031,87
1679064924924384041,-0.027
1679064924932079802,-0.031
1679064924939775563,-0.05
1679064924947471324,-0.052000000000000005
1679064924955167085,-0.033
1679064924962862846,-0.037
1679064924970558607,-0.073,,707
1679064924978254368,-0.091
1679064924985950129,-0.116
1679064924993645890,-0.189
1679064925001341651,-0.242
1679064925009037412,-0.23500000000000001
1679064925016733173,-0.233
1679064925024428934,-0.258
1679064925032124695,-0.273
1679064925039820456,-0.258
1679064925047516217,-0.227
1679064925055211978,-0.20600000000000002
1679064925062907739,-0.189
1679064925070603500,-0.162
1679064925078299261,-0.14100000000000001
1679064925085995022,-0.129
1679064925093690783,-0.106
1679064925101386544,-0.07
1679064925109082305,-0.037
1679064925116778066,-0.02
1679064925124473827,-0.016
1679064925132169588,0.0
1679064925139865349,0.025
1679064925147561110,0.041
1679064925155256871,0.052000000000000005
1679064925162952632,0.073
1679064925170648393,0.081
1679064925178344154,0.075
1679064925186039915,0.081
1679064925193735676,0.106
1679064925201431437,0.125
1679064925209127198,0.125
1679064925216822959,0.123
1679064925224518720,0.135
1679064925232214481,0.137
1679064925239910242,0.116
1679064925247606003,0.112
1679064925255301764,0.129
1679064925262997525,0.125
1679064925270693286,0.129
1679064925278389047,0.171
1679064925286084808,0.212
1679064925293780569,0.231
1679064925301476330,0.221
1679064925309172091,0.177
1679064925316867852,0.137
1679064925324563613,0.089
1679064925332259374,0.039
1679064925339955135,0.045
1679064925347650896,0.064
1679064925355346657,0.022
1679064925363042418,-0.025
1679064925370738179,0.016
1679064925378433940,0.275
1679064925386129701,0.8180000000000001
1679064925393825462,1.29
1679064925401521223,0.993
1679064925409216984,-0.058
1679064925416912745,-0.615
1679064925424608506,-0.202
1679064925432304267,0.112
1679064925440000028,-0.008
1679064925447695789,-0.027
1679064925455391550,0.054
1679064925463087311,0.054
1679064925470783072,0.064
1679064925478478885,0.096,87
1679064925486174786,0.079
1679064925493870687,0.062
1679064925501566588,0.08700000000000001
1679064925509262489,0.093
1679064925516958390,0.077
1679064925524654291,0.079
1679064925532350192,0.073
1679064925540046093,0.029
1679064925547741994,0.018000000000000002
1679064925555437895,0.05
1679064925563133796,0.041
1679064925570829697,-0.01
1679064925578525598,-0.029
1679064925586221499,-0.016
1679064925593917400,-0.029
1679064925601613301,-0.043000000000000003
1679064925609309202,-0.037
1679064925617005103,-0.031
1679064925624701004,-0.048
1679064925632396905,-0.066
1679064925640092806,-0.058
1679064925647788707,-0.037
1679064925655484608,-0.048
1679064925663180509,-0.066,,688
1679064925670876410,-0.07
1679064925678572311,-0.083
1679064925686268212,-0.10400000000000001
1679064925693964113,-0.10200000000000001
1679064925701660014,-0.081
1679064925709355915,-0.058
1679064925717051816,-0.054
1679064925724747717,-0.077
1679064925732443618,-0.1
1679064925740139519,-0.091
1679064925747835420,-0.07
1679064925755531321,-0.054
1679064925763227222,-0.029
1679064925770923123,-0.014
1679064925778619024,-0.01
1679064925786314925,0.004
1679064925794010826,0.037
1679064925801706727,0.062
1679064925809402628,0.062
1679064925817098529,0.041
1679064925824794430,-0.004
1679064925832490331,-0.054
1679064925840186232,-0.06
1679064925847882133,-0.035
1679064925855578034,-0.018000000000000002
1679064925863273935,-0.022
1679064925870969836,-0.027
1679064925878665737,-0.008
1679064925886361638,0.022
1679064925894057539,0.037
1679064925901753440,0.037
1679064925909449341,0.043000000000000003
1679064925917145242,0.052000000000000005
1679064925924841143,0.062
1679064925932537044,0.085
1679064925940232945,0.127
1679064925947928846,0.169
1679064925955624747,0.183
1679064925963320648,0.164
1679064925971016549,0.112
1679064925978712450,0.068
1679064925986408351,0.062
1679064925994104252,0.068
1679064926001800153,0.068
1679064926009496054,0.075
1679064926017191955,0.079
1679064926024887856,0.064
1679064926032583757,0.1
1679064926040279660,0.377
1679064926047975700,0.9450000000000001
1679064926055671740,1.3960000000000001
1679064926063367780,1.006
1679064926071063820,-0.106
1679064926078759860,-0.599
1679064926086455900,-0.146
1679064926094151940,0.096
1679064926101847980,-0.085
1679064926109544020,-0.127
1679064926117240060,-0.068
1679064926124936100,-0.079
1679064926132632140,-0.081
1679064926140328180,-0.064
1679064926148024220,-0.06
1679064926155720260,-0.033
1679064926163416300,-0.004
1679064926171112340,0.004
1679064926178808380,0.02
1679064926186504420,0.045
1679064926194200460,0.048
1679064926201896500,0.031
1679064926209592540,0.025
1679064926217288580,0.012
1679064926224984620,-0.043000000000000003
1679064926232680660,-0.096
1679064926240376700,-0.083
1679064926248072740,-0.064
1679064926255768780,-0.075
1679064926263464820,-0.083
1679064926271160860,-0.077
1679064926278856900,-0.083
1679064926286552940,-0.093
1679064926294248980,-0.081
1679064926301945020,-0.056
1679064926309641060,-0.043000000000000003
1679064926317337100,-0.068
1679064926325033140,-0.14400000000000002
1679064926332729180,-0.231
1679064926340425220,-0.267
1679064926348121260,-0.258,,684
1679064926355817300,-0.25
1679064926363513340,-0.23500000000000001
1679064926371209380,-0.225
1679064926378905420,-0.225
1679064926386601460,-0.196
1679064926394297500,-0.15
1679064926401993540,-0.121
1679064926409689580,-0.114
1679064926417385620,-0.10200000000000001
1679064926425081660,-0.075
1679064926432777700,-0.05
1679064926440473740,-0.033
1679064926448169780,-0.016
1679064926455865820,0.006
1679064926463561860,0.0
1679064926471257900,-0.025
1679064926478953940,-0.02
1679064926486649980,0.008
1679064926494346020,0.02
1679064926502042060,0.014
1679064926509738100,0.016
1679064926517434140,0.031
1679064926525130180,0.045
1679064926532826220,0.054
1679064926540522260,0.073
1679064926548218300,0.098
1679064926555914340,0.096
1679064926563610380,0.08700000000000001
1679064926571306420,0.11
1679064926579002460,0.135
1679064926586698500,0.135
1679064926594394540,0.133
1679064926602090608,0.158,87
1679064926609786648,0.194
1679064926617482688,0.223
1679064926625178728,0.246
1679064926632874768,0.252
1679064926640570808,0.20600000000000002
1679064926648266848,0.131
1679064926655962888,0.096
1679064926663658928,0.116
1679064926671354968,0.133
1679064926679051008,0.125
1679064926686747048,0.123
1679064926694443088,0.114
1679064926702139128,0.154
1679064926709835168,0.461
1679064926717531208,1.06
1679064926725227248,1.465
1679064926732923288,0.9530000000000001
1679064926740619328,-0.202
1679064926748315368,-0.609
1679064926756011408,-0.112
1679064926763707448,0.098
1679064926771403488,-0.066
1679064926779099528,-0.033
1679064926786795568,0.052000000000000005
1679064926794491608,0.01
1679064926802187648,0.006
1679064926809883688,0.06
1679064926817579728,0.081
1679064926825275768,0.079
1679064926832971808,0.043000000000000003
1679064926840667848,0.0
1679064926848363888,0.012
1679064926856059928,0.043000000000000003
1679064926863755968,0.048
1679064926871452008,0.064
1679064926879148048,0.079
1679064926886844088,0.054
1679064926894540128,0.037
1679064926902236168,0.045
1679064926909932208,0.029
1679064926917628248,-0.002
1679064926925324288,-0.016
1679064926933020328,-0.02
1679064926940716368,-0.027
1679064926948412408,-0.039
1679064926956108448,-0.058
1679064926963804488,-0.089
1679064926971500528,-0.116
1679064926979196568,-0.133
1679064926986892608,-0.14100000000000001
1679064926994588648,-0.15
1679064927002284688,-0.164
1679064927009980728,-0.192
1679064927017676768,-0.212
1679064927025372808,-0.20800000000000002
1679064927033068848,-0.189,,686
1679064927040764888,-0.183
1679064927048460928,-0.17300000000000001
1679064927056156968,-0.15
1679064927063853008,-0.139
1679064927071549048,-0.129
1679064927079245088,-0.096
1679064927086941128,-0.06
1679064927094637168,-0.05
1679064927102333208,-0.045
1679064927110029248,-0.022
1679064927117725288,0.002
1679064927125421328,0.01
1679064927133117368,0.02
1679064927140813408,0.043000000000000003
1679064927148509448,0.058
1679064927156205488,0.048
1679064927163901556,0.043000000000000003
1679064927171597596,0.066
1679064927179293636,0.096
1679064927186989676,0.106
1679064927194685716,0.098
1679064927202381756,0.066
1679064927210077796,0.027
1679064927217773836,-0.016
1679064927225469876,-0.054
1679064927233165916,-0.05
1679064927240861956,-0.031
1679064927248557996,-0.035
1679064927256254036,-0.035
1679064927263950076,-0.008
1679064927271646116,0.012
1679064927279342156,0.022
1679064927287038196,0.052000000000000005
1679064927294734236,0.091
1679064927302430276,0.112
1679064927310126316,0.135
1679064927317822356,0.164
1679064927325518396,0.14100000000000001
1679064927333214436,0.066
1679064927340910476,0.012
1679064927348606516,0.002
1679064927356302556,0.018000000000000002
1679064927363998596,0.039
1679064927371694636,0.048
1679064927379390676,0.041
1679064927387086716,0.056
1679064927394782756,0.26
1679064927402478796,0.809
1679064927410174836,1.367
1679064927417870876,1.145
1679064927425566916,0.045
1679064927433262956,-0.678
1679064927440958996,-0.373
1679064927448655036,-0.054
1679064927456351076,-0.17300000000000001
1679064927464047116,-0.196
1679064927471743156,-0.1
1679064927479439196,-0.106
1679064927487135236,-0.123
1679064927494831276,-0.081
1679064927502527316,-0.05
1679064927510223356,-0.035
1679064927517919396,-0.027
1679064927525615436,-0.025
1679064927533311476,-0.002
1679064927541007516,0.031
1679064927548703556,0.056
1679064927556399596,0.077
1679064927564095636,0.096
1679064927571791676,0.089
1679064927579487716,0.064
1679064927587183756,0.056
1679064927594879796,0.05
1679064927602575836,0.033
1679064927610271876,0.02
1679064927617967916,0.016
1679064927625663956,0.022
1679064927633359996,0.025
1679064927641056036,0.016
1679064927648752076,0.012
1679064927656448116,0.029
1679064927664144156,0.027
1679064927671840196,-0.004
1679064927679536236,0.008
1679064927687232276,0.045
1679064927694928316,0.018000000000000002
1679064927702624356,-0.048
1679064927710320396,-0.07,,680
1679064927718016436,-0.06
1679064927725712504,-0.056,88
1679064927733408544,-0.056
1679064927741104584,-0.027
1679064927748800624,-0.004
1679064927756496664,-0.05
1679064927764192704,-0.112
1679064927771888744,-0.093
1679064927779584784,-0.05
1679064927787280824,-0.048
1679064927794976864,-0.052000000000000005
1679064927802672904,-0.035
1679064927810368944,-0.018000000000000002
1679064927818064984,-0.01
1679064927825761024,0.004
1679064927833457064,0.018000000000000002
1679064927841153104,-0.031
1679064927848849144,-0.116
1679064927856545184,-0.121
1679064927864241224,-0.075
1679064927871937264,-0.062
1679064927879633304,-0.056
1679064927887329344,-0.041
1679064927895025384,-0.035
1679064927902721424,-0.031
1679064927910417464,-0.014
1679064927918113504,0.01
1679064927925809544,0.043000000000000003
1679064927933505584,0.064
1679064927941201624,0.045
1679064927948897664,0.016
1679064927956593704,0.018000000000000002
1679064927964289744,0.037
1679064927971985784,0.045
1679064927979681824,0.043000000000000003
1679064927987377864,0.033
1679064927995073904,0.054
1679064928002769944,0.114
1679064928010465984,0.154
1679064928018162024,0.17500000000000002
1679064928025858064,0.17500000000000002
1679064928033554104,0.123
1679064928041250144,0.096
1679064928048946184,0.127
1679064928056642224,0.139
1679064928064338264,0.129
1679064928072034304,0.146
1679064928079730344,0.162
1679064928087426384,0.125
1679064928095122424,0.10200000000000001
1679064928102818464,0.319
1679064928110514504,0.862
1679064928118210544,1.335
1679064928125906584,1.072
1679064928133602624,0.064
1679064928141298664,-0.528
1679064928148994704,-0.169
1679064928156690744,0.154
1679064928164386784,0.056
1679064928172082824,0.041
1679064928179778864,0.116
1679064928187474904,0.085
1679064928195170944,0.052000000000000005
1679064928202866984,0.066
1679064928210563024,0.064
1679064928218259064,0.056
1679064928225955104,0.089
1679064928233651144,0.125
1679064928241347184,0.127
1679064928249043224,0.116
1679064928256739264,0.108
1679064928264435304,0.085
1679064928272131344,0.05
1679064928279827384,0.039
1679064928287523452,0.058
1679064928295219492,0.062
1679064928302915532,0.045
1679064928310611572,0.031
1679064928318307612,0.012
1679064928326003652,-0.012
1679064928333699692,-0.056
1679064928341395732,-0.148
1679064928349091772,-0.252
1679064928356787812,-0.275
1679064928364483852,-0.246
1679064928372179892,-0.231,,663
1679064928379875932,-0.231
1679064928387571972,-0.246
1679064928395268012,-0.263
1679064928402964052,-0.267
1679064928410660092,-0.265
1679064928418356132,-0.26
1679064928426052172,-0.23700000000000002
1679064928433748212,-0.217
1679064928441444252,-0.24
1679064928449140292,-0.256
1679064928456836332,-0.221
1679064928464532372,-0.183
1679064928472228412,-0.17300000000000001
1679064928479924452,-0.164
1679064928487620492,-0.14100000000000001
1679064928495316532,-0.11800000000000001
1679064928503012572,-0.10400000000000001
1679064928510708612,-0.085
1679064928518404652,-0.056
1679064928526100692,-0.018000000000000002
1679064928533796732,-0.004
1679064928541492772,-0.016
1679064928549188812,-0.008
1679064928556884852,0.016
1679064928564580892,0.02
1679064928572276932,0.018000000000000002
1679064928579972972,0.033
1679064928587669012,0.043000000000000003
1679064928595365052,0.041
1679064928603061092,0.052000000000000005
1679064928610757132,0.079
1679064928618453172,0.10200000000000001
1679064928626149212,0.10400000000000001
1679064928633845252,0.1
1679064928641541292,0.114
1679064928649237332,0.14100000000000001
1679064928656933372,0.152
1679064928664629412,0.158
1679064928672325452,0.17300000000000001
1679064928680021492,0.162
1679064928687717532,0.112
1679064928695413572,0.089
1679064928703109612,0.112
1679064928710805652,0.14400000000000002
1679064928718501692,0.164
1679064928726197732,0.181
1679064928733893772,0.21
1679064928741589812,0.223
1679064928749285852,0.171
1679064928756981892,0.11
1679064928764677932,0.112
1679064928772373972,0.116
1679064928780070012,0.093
1679064928787766052,0.10400000000000001
1679064928795462092,0.135
1679064928803158132,0.127
1679064928810854172,0.137
1679064928818550212,0.394
1679064928826246252,0.978
1679064928833942292,1.467
1679064928841638332,1.112
1679064928849334402,-0.031,88
1679064928857030163,-0.607
1679064928864725924,-0.183
1679064928872421685,0.079
1679064928880117446,-0.068
1679064928887813207,-0.043000000000000003
1679064928895508968,0.056
1679064928903204729,0.012
1679064928910900490,-0.02
1679064928918596251,-0.006
1679064928926292012,-0.037
1679064928933987773,-0.091
1679064928941683534,-0.106
1679064928949379295,-0.112
1679064928957075056,-0.171
1679064928964770817,-0.225
1679064928972466578,-0.198
1679064928980162339,-0.164
1679064928987858100,-0.162
1679064928995553861,-0.15
1679064929003249622,-0.123
1679064929010945383,-0.11
1679064929018641144,-0.098
1679064929026336905,-0.073
1679064929034032666,-0.029,,661
1679064929041728427,-0.006
1679064929049424188,-0.027
1679064929057119949,-0.039
1679064929064815710,-0.014
1679064929072511471,0.006
1679064929080207232,0.008
1679064929087902993,0.01
1679064929095598754,0.004
1679064929103294515,-0.014
1679064929110990276,-0.031
1679064929118686037,-0.029
1679064929126381798,-0.016
1679064929134077559,-0.016
1679064929141773320,-0.033
1679064929149469081,-0.025
1679064929157164842,0.008
1679064929164860603,0.039
1679064929172556364,0.043000000000000003
1679064929180252125,0.029
1679064929187947886,0.02
1679064929195643647,0.027
1679064929203339408,0.035
1679064929211035169,0.056
1679064929218730930,0.08700000000000001
1679064929226426691,0.093
1679064929234122452,0.085
1679064929241818213,0.098
1679064929249513974,0.125
1679064929257209735,0.133
1679064929264905496,0.137
1679064929272601257,0.156
1679064929280297018,0.16
1679064929287992779,0.152
1679064929295688540,0.158
1679064929303384301,0.181
1679064929311080062,0.194
1679064929318775823,0.189
1679064929326471584,0.183
1679064929334167345,0.192
1679064929341863106,0.181
1679064929349558867,0.129
1679064929357254628,0.106
1679064929364950389,0.131
1679064929372646150,0.127
1679064929380341911,0.108
1679064929388037672,0.123
1679064929395733433,0.152
1679064929403429194,0.158
1679064929411125004,0.133
1679064929418821323,0.068
1679064929426517642,0.016
1679064929434213961,0.027
1679064929441910280,0.058
1679064929449606599,0.081
1679064929457302918,0.091
1679064929464999237,0.027
1679064929472695556,-0.079
1679064929480391875,-0.091
1679064929488088194,-0.048
1679064929495784513,-0.052000000000000005
1679064929503480832,-0.066
1679064929511177151,-0.054
1679064929518873470,-0.048
1679064929526569789,-0.052000000000000005
1679064929534266108,0.093
1679064929541962427,0.5760000000000001
1679064929549658746,1.181
1679064929557355065,1.233
1679064929565051384,0.356
1679064929572747703,-0.553
1679064929580444022,-0.45
1679064929588140341,-0.018000000000000002
1679064929595836660,-0.08700000000000001
1679064929603532979,-0.212
1679064929611229298,-0.129
1679064929618925617,-0.112
1679064929626621936,-0.148
1679064929634318255,-0.10400000000000001
1679064929642014574,-0.073
1679064929649710893,-0.098
1679064929657407212,-0.091
1679064929665103531,-0.075
1679064929672799850,-0.1
1679064929680496169,-0.11800000000000001
1679064929688192488,-0.093
1679064929695888807,-0.075
1679064929703585126,-0.068,,669
1679064929711281445,-0.05
1679064929718977764,-0.016
1679064929726674083,0.014
1679064929734370402,0.031
1679064929742066721,0.027
1679064929749763040,0.033
1679064929757459359,0.058
1679064929765155678,0.064
1679064929772851997,0.06
1679064929780548316,0.068
1679064929788244635,0.079
1679064929795940954,0.081
1679064929803637273,0.08700000000000001
1679064929811333592,0.10200000000000001
1679064929819029911,0.10200000000000001
1679064929826726230,0.075
1679064929834422549,0.037
1679064929842118868,-0.004
1679064929849815187,-0.066
1679064929857511506,-0.106
1679064929865207825,-0.091
1679064929872904144,-0.07
1679064929880600463,-0.07
1679064929888296782,-0.064
1679064929895993101,-0.037
1679064929903689420,-0.008
1679064929911385739,0.0
1679064929919082058,-0.018000000000000002
1679064929926778377,-0.025
1679064929934474696,-0.002
1679064929942171015,0.025
1679064929949867334,0.035
1679064929957563653,0.041
1679064929965259972,0.052000000000000005
1679064929972956298,0.052000000000000005,88
1679064929980651920,0.066
1679064929988347542,0.10400000000000001
1679064929996043164,0.121
1679064930003738786,0.11
1679064930011434408,0.10400000000000001
1679064930019130030,0.106
1679064930026825652,0.108
1679064930034521274,0.08700000000000001
1679064930042216896,0.029
1679064930049912518,0.006
1679064930057608140,0.031
1679064930065303762,0.027
1679064930072999384,0.002
1679064930080695006,-0.004
1679064930088390628,-0.016
1679064930096086250,-0.02
1679064930103781872,-0.014
1679064930111477494,-0.014
1679064930119173116,-0.008
1679064930126868738,0.0
1679064930134564360,-0.004
1679064930142259982,0.004
1679064930149955604,0.035
1679064930157651226,0.056
1679064930165346848,0.05
1679064930173042470,0.05
1679064930180738092,0.05
1679064930188433714,0.016
1679064930196129336,0.006
1679064930203824958,0.035
1679064930211520580,0.041
1679064930219216202,0.037
1679064930226911824,0.054
1679064930234607446,0.062
1679064930242303068,0.033
1679064930249998690,0.068
1679064930257694312,0.425
1679064930265389934,1.033
1679064930273085556,1.2670000000000001
1679064930280781178,0.555
1679064930288476800,-0.496
1679064930296172422,-0.636
1679064930303868044,-0.152
1679064930311563666,-0.058
1679064930319259288,-0.154
1679064930326954910,-0.073
1679064930334650532,-0.033
1679064930342346154,-0.11800000000000001
1679064930350041776,-0.17300000000000001
1679064930357737398,-0.164
1679064930365433020,-0.162
1679064930373128642,-0.169
1679064930380824264,-0.148
1679064930388519886,-0.112
1679064930396215508,-0.10200000000000001,,688
1679064930403911130,-0.112
1679064930411606752,-0.116
1679064930419302374,-0.10200000000000001
1679064930426997996,-0.083
1679064930434693618,-0.07
1679064930442389240,-0.045
1679064930450084862,-0.006
1679064930457780484,0.02
1679064930465476106,0.031
1679064930473171728,0.052000000000000005
1679064930480867350,0.06
1679064930488562972,0.05
1679064930496258594,0.066
1679064930503954216,0.091
1679064930511649838,0.10200000000000001
1679064930519345460,0.112
1679064930527041082,0.11800000000000001
1679064930534736728,0.108,88
1679064930542432768,0.083
1679064930550128808,0.06
1679064930557824848,0.058
1679064930565520888,0.06
1679064930573216928,0.012
1679064930580912968,-0.07
1679064930588609008,-0.091
1679064930596305048,-0.045
1679064930604001088,-0.027
1679064930611697128,-0.041
1679064930619393168,-0.027
1679064930627089208,0.008
1679064930634785248,0.02
1679064930642481288,0.014
1679064930650177328,0.012
1679064930657873368,0.004
1679064930665569408,-0.012
1679064930673265448,-0.008
1679064930680961488,0.01
1679064930688657528,0.027
1679064930696353568,0.037
1679064930704049608,0.045
1679064930711745648,0.052000000000000005
1679064930719441688,0.058
1679064930727137728,0.066
1679064930734833768,0.081
1679064930742529808,0.10400000000000001
1679064930750225848,0.116
1679064930757921888,0.108
1679064930765617928,0.098
1679064930773313968,0.091
1679064930781010008,0.083
1679064930788706048,0.085
1679064930796402088,0.096
1679064930804098128,0.108
1679064930811794168,0.123
1679064930819490208,0.133
1679064930827186248,0.137
1679064930834882288,0.152
1679064930842578328,0.162
1679064930850274368,0.116
1679064930857970408,0.039
1679064930865666448,0.035
1679064930873362488,0.079
1679064930881058528,0.096
1679064930888754568,0.108
1679064930896450608,0.11
1679064930904146648,0.041
1679064930911842688,-0.033
1679064930919538728,-0.025
1679064930927234768,-0.014
1679064930934930808,-0.073
1679064930942626848,-0.131
1679064930950322888,-0.146
1679064930958018928,-0.158
1679064930965714968,-0.171
1679064930973411008,-0.075
1679064930981107048,0.304
1679064930988803088,0.87
1679064930996499128,1.058
1679064931004195168,0.35000000000000003
1679064931011891208,-0.594
1679064931019587248,-0.609
1679064931027283288,-0.137
1679064931034979328,-0.108
1679064931042675368,-0.20800000000000002
1679064931050371408,-0.114
1679064931058067448,-0.06
1679064931065763488,-0.077
1679064931073459528,-0.048
1679064931081155568,-0.02
1679064931088851608,-0.035
1679064931096547676,-0.029,,707
1679064931104243716,0.02
1679064931111939756,0.06
1679064931119635796,0.06
1679064931127331836,0.064
1679064931135027876,0.08700000000000001
1679064931142723916,0.096
1679064931150419956,0.08700000000000001
1679064931158115996,0.1
1679064931165812036,0.129
1679064931173508076,0.106
1679064931181204116,0.052000000000000005
1679064931188900156,0.048
1679064931196596196,0.079
1679064931204292236,0.075
1679064931211988276,0.058
1679064931219684316,0.058
1679064931227380356,0.068
1679064931235076396,0.079
1679064931242772436,0.089
1679064931250468476,0.098
1679064931258164516,0.091
1679064931265860556,0.056
1679064931273556596,0.027
1679064931281252636,0.037
1679064931288948676,0.058
1679064931296644716,0.06
1679064931304340756,0.064
1679064931312036796,0.077
1679064931319732836,0.089
1679064931327428876,0.10200000000000001
1679064931335124916,0.11800000000000001
1679064931342820956,0.14400000000000002
1679064931350516996,0.156
1679064931358213036,0.116
1679064931365909076,0.06
1679064931373605116,0.073
1679064931381301156,0.112
1679064931388997196,0.10200000000000001
1679064931396693236,0.068
1679064931404389276,0.058
1679064931412085316,0.068
1679064931419781356,0.073
1679064931427477396,0.079
1679064931435173436,0.10400000000000001
1679064931442869476,0.116
1679064931450565516,0.1
1679064931458261556,0.1
1679064931465957596,0.125
1679064931473653636,0.125
1679064931481349676,0.096
1679064931489045716,0.081
1679064931496741756,0.083
1679064931504437796,0.077
1679064931512133836,0.073
1679064931519829876,0.081
1679064931527525916,0.096
1679064931535221956,0.106
1679064931542917996,0.096
1679064931550614036,0.093
1679064931558310076,0.11
1679064931566006116,0.114
1679064931573702156,0.112
1679064931581398196,0.14400000000000002
1679064931589094236,0.17500000000000002
1679064931596790276,0.185
1679064931604486316,0.198
1679064931612182356,0.198
1679064931619878396,0.171
1679064931627574436,0.154
1679064931635270476,0.11800000000000001
1679064931642966516,0.056
1679064931650662556,0.018000000000000002
1679064931658358624,-0.002,87
1679064931666054664,-0.033
1679064931673750704,-0.056
1679064931681446744,0.0
1679064931689142784,0.321
1679064931696838824,0.887
1679064931704534864,1.1480000000000001
1679064931712230904,0.47500000000000003
1679064931719926944,-0.5740000000000001
1679064931727622984,-0.709
1679064931735319024,-0.196
1679064931743015064,-0.106
1679064931750711104,-0.242
1679064931758407144,-0.162
1679064931766103184,-0.093
1679064931773799224,-0.135
1679064931781495264,-0.131
1679064931789191304,-0.083
1679064931796887344,-0.058
1679064931804583384,-0.041
1679064931812279424,-0.025,,715
1679064931819975464,-0.012
1679064931827671504,0.008
1679064931835367544,0.029
1679064931843063584,0.043000000000000003
1679064931850759624,0.066
1679064931858455664,0.062
1679064931866151704,0.0
1679064931873847744,-0.039
1679064931881543784,-0.029
1679064931889239824,-0.039
1679064931896935864,-0.06
1679064931904631904,-0.054
1679064931912327944,-0.045
1679064931920023984,-0.052000000000000005
1679064931927720024,-0.052000000000000005
1679064931935416064,-0.033
1679064931943112104,-0.004
1679064931950808144,0.012
1679064931958504184,0.0
1679064931966200224,-0.02
1679064931973896264,-0.02
1679064931981592304,-0.018000000000000002
1679064931989288344,-0.027
1679064931996984384,-0.033
1679064932004680424,-0.027
1679064932012376464,-0.02
1679064932020072504,-0.018000000000000002
1679064932027768544,-0.002
1679064932035464584,0.035
1679064932043160624,0.054
1679064932050856664,0.041
1679064932058552704,0.048
1679064932066248744,0.081
1679064932073944784,0.1
1679064932081640824,0.10200000000000001
1679064932089336864,0.114
1679064932097032904,0.129
1679064932104728944,0.129
1679064932112424984,0.131
1679064932120121024,0.15
1679064932127817064,0.15
1679064932135513104,0.108
1679064932143209144,0.07
1679064932150905184,0.077
1679064932158601224,0.093
1679064932166297264,0.096
1679064932173993304,0.10400000000000001
1679064932181689344,0.11800000000000001
1679064932189385384,0.106
1679064932197081424,0.066
1679064932204777464,0.048
1679064932212473504,0.068
1679064932220169574,0.079
1679064932227865196,0.068
1679064932235560818,0.06
1679064932243256440,0.07
1679064932250952062,0.083
1679064932258647684,0.081
1679064932266343306,0.083
1679064932274038928,0.096
1679064932281734550,0.091
1679064932289430172,0.062
1679064932297125794,0.058
1679064932304821416,0.093
1679064932312517038,0.093
1679064932320212660,0.033
1679064932327908282,0.004
1679064932335603904,0.033
1679064932343299526,0.043000000000000003
1679064932350995148,0.008
1679064932358690770,-0.043000000000000003
1679064932366386392,-0.121
1679064932374082014,-0.221
1679064932381777636,-0.252
1679064932389473258,-0.004
1679064932397168880,0.5690000000000001
1679064932404864502,1.039
1679064932412560124,0.715
1679064932420255746,-0.333
1679064932427951368,-0.864
1679064932435646990,-0.452
1679064932443342612,-0.156
1679064932451038234,-0.267
1679064932458733856,-0.258
1679064932466429478,-0.185
1679064932474125100,-0.212
1679064932481820722,-0.187
1679064932489516344,-0.11800000000000001
1679064932497211966,-0.114
1679064932504907588,-0.11800000000000001
1679064932512603210,-0.08700000000000001
1679064932520298832,-0.062
1679064932527994454,-0.052000000000000005
1679064932535690076,-0.029,,719
1679064932543385698,0.004
1679064932551081320,0.029
1679064932558776942,0.039
1679064932566472564,0.058
1679064932574168186,0.091
1679064932581863808,0.114
1679064932589559430,0.127
1679064932597255052,0.133
1679064932604950674,0.137
1679064932612646296,0.154
1679064932620341918,0.154
1679064932628037540,0.106
1679064932635733162,0.08700000000000001
1679064932643428784,0.114
1679064932651124406,0.116
1679064932658820028,0.10400000000000001
1679064932666515650,0.112
1679064932674211272,0.1
1679064932681906894,0.073
1679064932689602516,0.058
1679064932697298138,0.035
1679064932704993760,0.027
1679064932712689382,0.054
1679064932720385004,0.083
1679064932728080626,0.096
1679064932735776248,0.106
1679064932743471870,0.11
1679064932751167492,0.11800000000000001
1679064932758863114,0.14100000000000001
1679064932766558736,0.16
1679064932774254358,0.17500000000000002
1679064932781950004,0.189,87
1679064932789646044,0.189
1679064932797342084,0.179
1679064932805038124,0.194
1679064932812734164,0.225
1679064932820430204,0.24
1679064932828126244,0.227
1679064932835822284,0.212
1679064932843518324,0.217
1679064932851214364,0.217
1679064932858910404,0.17500000000000002
1679064932866606444,0.1
1679064932874302484,0.033
1679064932881998524,-0.008
1679064932889694564,-0.027
1679064932897390604,-0.022
1679064932905086644,0.0
1679064932912782684,-0.014
1679064932920478724,-0.064
1679064932928174764,-0.079
1679064932935870804,-0.05
1679064932943566844,-0.031
1679064932951262884,-0.045
1679064932958958924,-0.052000000000000005
1679064932966654964,-0.022
1679064932974351004,-0.002
1679064932982047044,0.0
1679064932989743084,0.029
1679064932997439124,0.062
1679064933005135164,0.031
1679064933012831204,-0.006
1679064933020527244,-0.002
1679064933028223284,0.004
1679064933035919324,0.002
1679064933043615364,0.014
1679064933051311404,0.031
1679064933059007444,0.018000000000000002
1679064933066703484,-0.027
1679064933074399524,0.1
1679064933082095564,0.603
1679064933089791604,1.162
1679064933097487644,1.027
1679064933105183684,0.006
1679064933112879724,-0.807
1679064933120575764,-0.584
1679064933128271804,-0.169
1679064933135967844,-0.187
1679064933143663884,-0.215
1679064933151359924,-0.15
1679064933159055964,-0.181
1679064933166752004,-0.179
1679064933174448044,-0.10400000000000001
1679064933182144084,-0.125
1679064933189840124,-0.17500000000000002
1679064933197536164,-0.129
1679064933205232204,-0.083
1679064933212928244,-0.079
1679064933220624284,-0.066
1679064933228320324,-0.039
1679064933236016364,0.0
1679064933243712404,0.025
1679064933251408444,0.022,,718
1679064933259104484,0.035
1679064933266800524,0.068
1679064933274496564,0.089
1679064933282192604,0.106
1679064933289888644,0.116
1679064933297584684,0.112
1679064933305280724,0.11
1679064933312976764,0.11800000000000001
1679064933320672804,0.135
1679064933328368844,0.162
1679064933336064884,0.179
1679064933343760952,0.177
1679064933351456992,0.177
1679064933359153032,0.154
1679064933366849072,0.079
1679064933374545112,0.002
1679064933382241152,-0.064
1679064933389937192,-0.14100000000000001
1679064933397633232,-0.20600000000000002
1679064933405329272,-0.231
1679064933413025312,-0.212
1679064933420721352,-0.183
1679064933428417392,-0.181
1679064933436113432,-0.183
1679064933443809472,-0.154
1679064933451505512,-0.11800000000000001
1679064933459201552,-0.123
1679064933466897592,-0.125
1679064933474593632,-0.096
1679064933482289672,-0.081
1679064933489985712,-0.08700000000000001
1679064933497681752,-0.062
1679064933505377792,-0.018000000000000002
1679064933513073832,0.002
1679064933520769872,0.004
1679064933528465912,0.025
1679064933536161952,0.073
1679064933543857992,0.098
1679064933551554032,0.091
1679064933559250072,0.108
1679064933566946112,0.131
1679064933574642152,0.131
1679064933582338192,0.137
1679064933590034232,0.16
1679064933597730272,0.177
1679064933605426312,0.169
1679064933613122352,0.14400000000000002
1679064933620818392,0.131
1679064933628514432,0.10400000000000001
1679064933636210472,0.054
1679064933643906512,0.062
1679064933651602552,0.112
1679064933659298592,0.131
1679064933666994632,0.112
1679064933674690672,0.085
1679064933682386712,0.085
1679064933690082752,0.106
1679064933697778792,0.112
1679064933705474832,0.10400000000000001
1679064933713170872,0.093
1679064933720866912,0.083
1679064933728562952,0.068
1679064933736258992,0.068
1679064933743955032,0.083
1679064933751651072,0.177
1679064933759347112,0.528
1679064933767043152,1.083
1679064933774739192,1.367
1679064933782435232,0.772
1679064933790131272,-0.279
1679064933797827312,-0.498
1679064933805523352,-0.031
1679064933813219392,0.031
1679064933820915432,-0.154
1679064933828611472,-0.10400000000000001
1679064933836307512,-0.029
1679064933844003552,-0.064
1679064933851699592,-0.091
1679064933859395632,-0.085
1679064933867091672,-0.075
1679064933874787712,-0.07
1679064933882483752,-0.091
1679064933890179792,-0.148
1679064933897875832,-0.189
1679064933905571900,-0.171,86
1679064933913267940,-0.129
1679064933920963980,-0.106
1679064933928660020,-0.085
1679064933936356060,-0.068
1679064933944052100,-0.077
1679064933951748140,-0.064
1679064933959444180,-0.031
1679064933967140220,-0.048
1679064933974836260,-0.093,,723
1679064933982532300,-0.093
1679064933990228340,-0.093
1679064933997924380,-0.135
1679064934005620420,-0.139
1679064934013316460,-0.07
1679064934021012500,-0.022
1679064934028708540,-0.05
1679064934036404580,-0.08700000000000001
1679064934044100620,-0.089
1679064934051796660,-0.08700000000000001
1679064934059492700,-0.093
1679064934067188740,-0.083
1679064934074884780,-0.075
1679064934082580820,-0.08700000000000001
1679064934090276860,-0.08700000000000001
1679064934097972900,-0.079
1679064934105668940,-0.089
1679064934113364980,-0.08700000000000001
1679064934121061020,-0.073
1679064934128757060,-0.073
1679064934136453100,-0.062
1679064934144149140,-0.029
1679064934151845180,-0.004
1679064934159541220,0.016
1679064934167237260,0.041
1679064934174933300,0.043000000000000003
1679064934182629340,0.035
1679064934190325380,0.058
1679064934198021420,0.093
1679064934205717460,0.106
1679064934213413500,0.10400000000000001
1679064934221109540,0.11
1679064934228805580,0.123
1679064934236501620,0.127
1679064934244197660,0.129
1679064934251893700,0.146
1679064934259589740,0.164
1679064934267285780,0.158
1679064934274981820,0.154
1679064934282677860,0.177
1679064934290373900,0.196
1679064934298069940,0.192
1679064934305765980,0.187
1679064934313462020,0.20400000000000001
1679064934321158060,0.233
1679064934328854100,0.26
1679064934336550140,0.28500000000000003
1679064934344246180,0.281
1679064934351942220,0.185
1679064934359638260,0.07
1679064934367334300,0.056
1679064934375030340,0.08700000000000001
1679064934382726380,0.079
1679064934390422420,0.062
1679064934398118460,0.02
1679064934405814500,-0.058
1679064934413510540,-0.098
1679064934421206580,0.048
1679064934428902620,0.528
1679064934436598660,1.1520000000000001
1679064934444294700,1.227
1679064934451990740,0.323
1679064934459686780,-0.603
1679064934467382848,-0.446,86
1679064934475078470,0.027
1679064934482774092,-0.025
1679064934490469714,-0.112
1679064934498165336,-0.014
1679064934505860958,-0.048
1679064934513556580,-0.152
1679064934521252202,-0.146
1679064934528947824,-0.125
1679064934536643446,-0.181
1679064934544339068,-0.217
1679064934552034690,-0.192
1679064934559730312,-0.169
1679064934567425934,-0.169
1679064934575121556,-0.152
1679064934582817178,-0.125
1679064934590512800,-0.125
1679064934598208422,-0.139
1679064934605904044,-0.125
1679064934613599666,-0.085
1679064934621295288,-0.062
1679064934628990910,-0.058
1679064934636686532,-0.06
1679064934644382154,-0.05
1679064934652077776,-0.039
1679064934659773398,-0.037
1679064934667469020,-0.031
1679064934675164642,-0.008
1679064934682860264,0.0,,709
1679064934690555886,-0.006
1679064934698251508,0.0
1679064934705947130,0.004
1679064934713642752,-0.016
1679064934721338374,-0.039
1679064934729033996,-0.052000000000000005
1679064934736729618,-0.045
1679064934744425240,-0.031
1679064934752120862,-0.02
1679064934759816484,-0.002
