ts,red,ir,green
1679064937796881,118171.0,134494.0,10436.0
1679064937804881,118137.0,134515.0,10422.0
1679064937814881,118106.0,134535.0,10429.0
1679064937824881,118162.0,134549.0,10414.0
1679064937835881,118208.0,134545.0,10425.0
1679064937844881,118239.0,134587.0,10433.0
1679064937854881,118265.0,134681.0,10431.0
1679064937864881,118264.0,134692.0,10434.0
1679064937874881,118278.0,134732.0,10430.0
1679064937884881,118300.0,134753.0,10441.0
1679064937894881,118327.0,134762.0,10439.0
1679064937904881,118355.0,134774.0,10433.0
1679064937914881,118380.0,134774.0,10411.0
1679064937924881,118378.0,134803.0,10392.0
1679064937934881,118371.0,134792.0,10404.0
1679064937944881,118400.0,134819.0,10423.0
1679064937954881,118368.0,134815.0,10416.0
1679064937964881,118401.0,134821.0,10395.0
1679064937974881,118388.0,134836.0,10423.0
1679064937984881,118393.0,134844.0,10411.0
1679064937994881,118373.0,134864.0,10407.0
1679064938004881,118400.0,134883.0,10454.0
1679064938014881,118370.0,134917.0,10424.0
1679064938024881,118360.0,134915.0,10431.0
1679064938034881,118344.0,134914.0,10409.0
1679064938044881,118367.0,134897.0,10417.0
1679064938054881,118386.0,134897.0,10416.0
1679064938064881,118384.0,134929.0,10418.0
1679064938074881,118421.0,134960.0,10426.0
1679064938085881,118470.0,135009.0,10434.0
1679064938094881,118475.0,134989.0,10426.0
1679064938104881,118465.0,135029.0,10430.0
1679064938114881,118490.0,135101.0,10424.0
1679064938125881,118500.0,135122.0,10427.0
1679064938133880,118510.0,135139.0,10421.0
1679064938144880,118507.0,135172.0,10416.0
1679064938154880,118534.0,135214.0,10418.0
1679064938165881,118547.0,135217.0,10423.0
1679064938174881,118548.0,135249.0,10415.0
1679064938183881,118581.0,135221.0,10424.0
1679064938194881,118604.0,135293.0,10400.0
1679064938204881,118620.0,135335.0,10423.0
1679064938214881,118639.0,135391.0,10425.0
1679064938223881,118652.0,135427.0,10416.0
1679064938234881,118654.0,135446.0,10438.0
1679064938244881,118627.0,135470.0,10419.0
1679064938254881,118658.0,135479.0,10421.0
1679064938263881,118641.0,135503.0,10420.0
1679064938274881,118626.0,135541.0,10416.0
1679064938284881,118679.0,135556.0,10409.0
1679064938294881,118678.0,135588.0,10407.0
1679064938303881,118652.0,135603.0,10404.0
1679064938314881,118657.0,135613.0,10395.0
1679064938324881,118668.0,135625.0,10378.0
1679064938334881,118673.0,135653.0,10368.0
1679064938343881,118674.0,135685.0,10371.0
1679064938354881,118687.0,135722.0,10362.0
1679064938364881,118642.0,135731.0,10404.0
1679064938375881,118689.0,135741.0,10399.0
1679064938384881,118702.0,135789.0,10388.0
1679064938393881,118694.0,135720.0,10382.0
1679064938404881,118698.0,135819.0,10389.0
1679064938415881,118686.0,135811.0,10379.0
1679064938423880,118662.0,135805.0,10378.0
1679064938434880,118617.0,135803.0,10372.0
1679064938444880,118597.0,135800.0,10369.0
1679064938455880,118590.0,135776.0,10374.0
1679064938463880,118621.0,135883.0,10365.0
1679064938474880,118653.0,135907.0,10378.0
1679064938484880,118708.0,135979.0,10376.0
1679064938494880,118750.0,135979.0,10388.0
1679064938503880,118801.0,136019.0,10385.0
1679064938514880,118822.0,136011.0,10393.0
1679064938524881,118860.0,136098.0,10400.0
1679064938534881,118937.0,136141.0,10406.0
1679064938544881,118964.0,136174.0,10389.0
1679064938553881,118901.0,136167.0,10416.0
1679064938564881,118915.0,136165.0,10415.0
1679064938574881,118937.0,136229.0,10419.0
1679064938585881,118995.0,136179.0,10413.0
1679064938593881,119000.0,136208.0,10413.0
1679064938604880,119015.0,136195.0,10413.0
1679064938614880,119018.0,136147.0,10413.0
1679064938625880,119005.0,136197.0,10416.0
1679064938633880,119016.0,136166.0,10418.0
1679064938644880,119027.0,136177.0,10418.0
1679064938654880,119043.0,136175.0,10396.0
1679064938665880,119017.0,136213.0,10410.0
1679064938673880,119018.0,136192.0,10409.0
1679064938684880,118982.0,136219.0,10413.0
1679064938694880,118979.0,136195.0,10402.0
1679064938704881,118962.0,136229.0,10403.0
1679064938713881,118998.0,136277.0,10396.0
1679064938724881,118939.0,136258.0,10399.0
1679064938734881,118935.0,136267.0,10377.0
1679064938744881,118924.0,136287.0,10388.0
1679064938753881,118912.0,136314.0,10383.0
1679064938763881,118865.0,136296.0,10369.0
1679064938774881,118841.0,136300.0,10372.0
1679064938784881,118840.0,136293.0,10373.0
1679064938794881,118857.0,136339.0,10364.0
1679064938804881,118842.0,136313.0,10366.0
1679064938814881,118847.0,136354.0,10358.0
1679064938824881,118852.0,136329.0,10369.0
1679064938834881,118856.0,136338.0,10371.0
1679064938843881,118847.0,136351.0,10360.0
1679064938854881,118874.0,136348.0,10355.0
1679064938864881,118855.0,136352.0,10363.0
1679064938875881,118847.0,136377.0,10362.0
1679064938883881,118887.0,136355.0,10360.0
1679064938893881,118880.0,136336.0,10356.0
1679064938905881,118819.0,136347.0,10376.0
1679064938914881,118865.0,136320.0,10349.0
1679064938924881,118833.0,136353.0,10363.0
1679064938933881,118805.0,136388.0,10362.0
1679064938944881,118852.0,136283.0,10344.0
1679064938954881,118859.0,136290.0,10347.0
1679064938963881,118848.0,136352.0,10333.0
1679064938973881,118873.0,136332.0,10343.0
1679064938983881,118875.0,136355.0,10362.0
1679064938994881,118899.0,136363.0,10351.0
1679064939003881,118904.0,136361.0,10353.0
1679064939013881,118937.0,136356.0,10358.0
1679064939023881,118926.0,136384.0,10362.0
1679064939034881,118949.0,136407.0,10350.0
1679064939044881,118938.0,136428.0,10343.0
1679064939053881,118935.0,136459.0,10329.0
1679064939063881,118917.0,136456.0,10351.0
1679064939074881,118877.0,136449.0,10335.0
1679064939084881,118810.0,136436.0,10331.0
1679064939093881,118830.0,136462.0,10344.0
1679064939104881,118844.0,136474.0,10345.0
1679064939114881,118888.0,136564.0,10322.0
1679064939124881,118932.0,136564.0,10351.0
1679064939133881,118962.0,136598.0,10364.0
1679064939143881,119022.0,136655.0,10330.0
1679064939153881,119040.0,136704.0,10357.0
1679064939164881,119069.0,136740.0,10346.0
1679064939173881,119097.0,136767.0,10337.0
1679064939183881,119147.0,136825.0,10332.0
1679064939193881,119207.0,136863.0,10355.0
1679064939204881,119260.0,136925.0,10365.0
1679064939214881,119249.0,136952.0,10380.0
1679064939223881,119310.0,136962.0,10390.0
1679064939233881,119373.0,137033.0,10400.0
1679064939244881,119442.0,137097.0,10386.0
1679064939253881,119497.0,137165.0,10387.0
1679064939264881,119546.0,137249.0,10431.0
1679064939273881,119649.0,137267.0,10439.0
1679064939283881,119726.0,137373.0,10440.0
1679064939294881,119783.0,137460.0,10459.0
1679064939303881,119900.0,137618.0,10471.0
1679064939314881,120029.0,137745.0,10491.0
1679064939323881,120171.0,137834.0,10513.0
1679064939334881,120264.0,137949.0,10530.0
1679064939343881,120382.0,138064.0,10541.0
1679064939354881,120500.0,138188.0,10561.0
1679064939363881,120610.0,138290.0,10573.0
1679064939374881,120800.0,138452.0,10604.0
1679064939383881,120947.0,138591.0,10628.0
1679064939393881,121158.0,138788.0,10654.0
1679064939403881,121342.0,138960.0,10681.0
1679064939414881,121504.0,139117.0,10707.0
1679064939423881,121672.0,139228.0,10733.0
1679064939434881,121853.0,139407.0,10742.0
1679064939443881,122017.0,139552.0,10750.0
1679064939454881,122163.0,139639.0,10774.0
1679064939463881,122294.0,139783.0,10782.0
1679064939473881,122425.0,139934.0,10815.0
1679064939483881,122602.0,140083.0,10824.0
1679064939493881,122736.0,140231.0,10848.0
1679064939503881,122862.0,140309.0,10880.0
1679064939513881,122956.0,140440.0,10884.0
1679064939524881,123051.0,140606.0,10901.0
1679064939533881,123189.0,140746.0,10902.0
1679064939544880,123352.0,140872.0,10927.0
1679064939553881,123467.0,140980.0,10946.0
1679064939564880,123585.0,141079.0,10961.0
1679064939573881,123721.0,141145.0,10983.0
1679064939584880,123861.0,141277.0,11002.0
1679064939593881,123948.0,141302.0,11027.0
1679064939604881,124058.0,141345.0,11044.0
1679064939613881,124182.0,141450.0,11055.0
1679064939624881,124264.0,141516.0,11071.0
1679064939633881,124352.0,141529.0,11085.0
1679064939643881,124465.0,141651.0,11105.0
1679064939653881,124596.0,141767.0,11101.0
1679064939663881,124775.0,141904.0,11148.0
1679064939673881,124944.0,142084.0,11130.0
1679064939683881,125192.0,142367.0,11181.0
1679064939693881,125458.0,142689.0,11205.0
1679064939703881,125694.0,142985.0,11235.0
1679064939713881,125883.0,143196.0,11221.0
1679064939724881,126000.0,143323.0,11280.0
1679064939733881,126046.0,143363.0,11275.0
1679064939743881,126062.0,143354.0,11242.0
1679064939753881,126062.0,143341.0,11255.0
1679064939763881,126063.0,143312.0,11260.0
1679064939773881,126045.0,143281.0,11251.0
1679064939783881,126003.0,143225.0,11243.0
1679064939794881,125967.0,143133.0,11244.0
1679064939803881,125863.0,143002.0,11272.0
1679064939813881,125815.0,142825.0,11269.0
1679064939823881,125715.0,142565.0,11263.0
1679064939834881,125535.0,142296.0,11278.0
1679064939843881,125467.0,142055.0,11287.0
1679064939854881,125376.0,141853.0,11294.0
1679064939863881,125295.0,141649.0,11294.0
1679064939874881,125235.0,141425.0,11307.0
1679064939883881,125144.0,141181.0,11308.0
1679064939893881,125034.0,140941.0,11307.0
1679064939903881,124951.0,140858.0,11301.0
1679064939914881,124851.0,140847.0,11260.0
1679064939923881,124823.0,141089.0,11220.0
1679064939933881,124773.0,141345.0,11187.0
1679064939943881,124748.0,141513.0,11169.0
1679064939954881,124719.0,141513.0,11156.0
1679064939963881,124620.0,141362.0,11162.0
1679064939973881,124528.0,141157.0,11156.0
1679064939983881,124412.0,140874.0,11148.0
1679064939993881,124205.0,140553.0,11152.0
1679064940003881,124016.0,140259.0,11144.0
1679064940014881,123861.0,140021.0,11111.0
1679064940024881,123722.0,139754.0,11129.0
1679064940033881,123587.0,139493.0,11147.0
1679064940044881,123484.0,139283.0,11145.0
1679064940053881,123366.0,139083.0,11143.0
1679064940064881,123227.0,138872.0,11145.0
1679064940073881,123163.0,138703.0,11142.0
1679064940084881,123073.0,138615.0,11140.0
1679064940093881,122994.0,138516.0,11121.0
1679064940103881,122907.0,138459.0,11117.0
1679064940115881,122849.0,138484.0,11088.0
1679064940124881,122814.0,138578.0,11089.0
1679064940133881,122832.0,138684.0,11050.0
1679064940144881,122822.0,138871.0,11027.0
1679064940153881,122776.0,138985.0,11003.0
1679064940163881,122746.0,139117.0,10944.0
1679064940173881,122660.0,139284.0,10955.0
1679064940183881,122688.0,139520.0,10930.0
1679064940194881,122761.0,139872.0,10915.0
1679064940203881,122982.0,140114.0,10916.0
1679064940212881,123105.0,140476.0,10910.0
1679064940223881,123227.0,140830.0,10899.0
1679064940233881,123350.0,141117.0,10900.0
1679064940243881,123500.0,141464.0,10890.0
1679064940253881,123631.0,141896.0,10860.0
1679064940263881,123758.0,142274.0,10851.0
1679064940273881,123892.0,142764.0,10822.0
1679064940283881,124027.0,143314.0,10778.0
1679064940293881,124133.0,143923.0,10749.0
1679064940303881,124196.0,144526.0,10684.0
1679064940313881,124099.0,145028.0,10575.0
1679064940323881,123886.0,145428.0,10480.0
1679064940333881,123530.0,145676.0,10381.0
1679064940343881,123055.0,145805.0,10197.0
1679064940353881,122373.0,145833.0,10100.0
1679064940363881,121680.0,145813.0,9925.0
1679064940373881,120998.0,145789.0,9829.0
1679064940383881,120296.0,145740.0,9641.0
1679064940393881,119559.0,145549.0,9520.0
1679064940403881,118848.0,145371.0,9378.0
1679064940413881,118184.0,145137.0,9261.0
1679064940423881,117508.0,144944.0,9155.0
1679064940433881,116878.0,144686.0,9058.0
1679064940443881,116311.0,144404.0,8964.0
1679064940453881,115779.0,144205.0,8878.0
1679064940463881,115238.0,144004.0,8782.0
1679064940473881,114651.0,143727.0,8682.0
1679064940483881,113990.0,143550.0,8565.0
1679064940493881,113296.0,143363.0,8447.0
1679064940503881,112557.0,143201.0,8305.0
1679064940513881,111613.0,142968.0,8122.0
1679064940523881,110423.0,142755.0,7893.0
1679064940533881,109143.0,142571.0,7649.0
1679064940543881,107942.0,142582.0,7407.0
1679064940553881,106518.0,142556.0,7045.0
1679064940563881,104897.0,142749.0,6801.0
1679064940573881,103550.0,143310.0,6493.0
1679064940583881,103041.0,144684.0,6370.0
1679064940593881,103207.0,146405.0,6360.0
1679064940603881,103377.0,147674.0,6342.0
1679064940613881,103408.0,147944.0,6314.0
1679064940623881,103446.0,148351.0,6334.0
1679064940633881,103508.0,148484.0,6301.0
1679064940642881,103506.0,148508.0,6323.0
1679064940653881,103545.0,148877.0,6342.0
1679064940663881,103925.0,149788.0,6357.0
1679064940673881,104295.0,150322.0,6363.0
1679064940683881,104534.0,150514.0,6385.0
1679064940693881,104599.0,150456.0,6401.0
1679064940703881,104674.0,150383.0,6403.0
1679064940713881,104658.0,150388.0,6415.0
1679064940723881,104660.0,150357.0,6411.0
1679064940732881,104661.0,150295.0,6424.0
1679064940743881,104709.0,150316.0,6396.0
1679064940753881,104755.0,150303.0,6413.0
1679064940763881,104799.0,150311.0,6406.0
1679064940773881,104778.0,150320.0,6432.0
1679064940783881,104812.0,150284.0,6444.0
1679064940793881,104819.0,150304.0,6468.0
1679064940803881,104858.0,150338.0,6461.0
1679064940813881,104878.0,150317.0,6461.0
1679064940823881,104911.0,150320.0,6466.0
1679064940833881,104936.0,150311.0,6450.0
1679064940843881,104970.0,150293.0,6434.0
1679064940852881,104948.0,150267.0,6464.0
1679064940863881,104970.0,150300.0,6462.0
1679064940873881,104978.0,150324.0,6466.0
1679064940883881,105027.0,150308.0,6470.0
1679064940893881,105061.0,150337.0,6485.0
1679064940903881,105061.0,150334.0,6492.0
1679064940913881,105073.0,150345.0,6453.0
1679064940922881,105089.0,150363.0,6497.0
1679064940933881,105096.0,150358.0,6491.0
1679064940943881,105085.0,150373.0,6494.0
1679064940953881,105125.0,150393.0,6497.0
1679064940962881,105126.0,150399.0,6488.0
1679064940973881,105115.0,150381.0,6495.0
1679064940983881,105092.0,150403.0,6502.0
1679064940993881,105089.0,150388.0,6486.0
1679064941003881,105082.0,150403.0,6489.0
1679064941013881,105071.0,150360.0,6492.0
1679064941022881,105067.0,150365.0,6478.0
1679064941033881,105062.0,150370.0,6448.0
1679064941043881,105044.0,150370.0,6484.0
1679064941053881,105061.0,150384.0,6462.0
1679064941063881,105071.0,150406.0,6483.0
1679064941073881,105079.0,150405.0,6502.0
1679064941083881,105103.0,150421.0,6500.0
1679064941092881,105093.0,150415.0,6465.0
1679064941103881,105096.0,150419.0,6475.0
1679064941112881,105109.0,150430.0,6480.0
1679064941123881,105127.0,150453.0,6447.0
1679064941133881,105147.0,150528.0,6494.0
1679064941143881,105150.0,150530.0,6517.0
1679064941153881,105151.0,150523.0,6520.0
1679064941163881,105156.0,150502.0,6518.0
1679064941173881,105140.0,150487.0,6516.0
1679064941182881,105130.0,150498.0,6519.0
1679064941193881,105136.0,150456.0,6520.0
1679064941203881,105104.0,150422.0,6519.0
1679064941213881,105083.0,150400.0,6537.0
1679064941224881,105063.0,150402.0,6514.0
1679064941232881,105006.0,150374.0,6512.0
1679064941243881,104982.0,150325.0,6475.0
1679064941253881,104903.0,150312.0,6505.0
1679064941263881,104899.0,150327.0,6502.0
1679064941273881,104852.0,150367.0,6548.0
1679064941283881,104846.0,150350.0,6506.0
1679064941293881,104809.0,150348.0,6478.0
1679064941303881,104725.0,150355.0,6482.0
1679064941312881,104698.0,150496.0,6473.0
1679064941325881,105387.0,151471.0,6534.0
1679064941333881,105550.0,151552.0,6547.0
1679064941343881,105692.0,151669.0,6567.0
1679064941352881,105544.0,150749.0,6583.0
1679064941363880,105075.0,148383.0,6608.0
1679064941373880,104815.0,145571.0,6780.0
1679064941383880,106154.0,144346.0,7135.0
1679064941392881,108296.0,143922.0,7629.0
1679064941403881,111107.0,143761.0,8205.0
1679064941413881,113822.0,143936.0,8683.0
1679064941422881,114973.0,144591.0,8852.0
1679064941432881,116271.0,145389.0,9011.0
1679064941443881,116966.0,145767.0,9103.0
1679064941453881,117324.0,145981.0,9141.0
1679064941463881,117657.0,145584.0,9231.0
1679064941472881,117850.0,145278.0,9292.0
1679064941482881,118123.0,145005.0,9356.0
1679064941493881,118517.0,144784.0,9453.0
1679064941503881,119032.0,144541.0,9619.0
1679064941512881,119617.0,144366.0,9751.0
1679064941522881,120221.0,144297.0,9921.0
1679064941533881,120933.0,144290.0,10092.0
1679064941543881,121719.0,144248.0,10309.0
1679064941552881,122502.0,144165.0,10492.0
1679064941562881,123174.0,143945.0,10676.0
1679064941573881,123642.0,143563.0,10802.0
1679064941583881,123890.0,143051.0,10916.0
1679064941592881,123991.0,142598.0,10945.0
1679064941602881,123907.0,142242.0,11040.0
1679064941613881,123946.0,142035.0,11058.0
1679064941623881,123940.0,141912.0,11071.0
1679064941633881,123936.0,141751.0,11110.0
1679064941642881,123899.0,141488.0,11116.0
1679064941653881,123901.0,141302.0,11141.0
1679064941663881,123837.0,140936.0,11176.0
1679064941673881,123753.0,140552.0,11210.0
1679064941682881,123627.0,140078.0,11227.0
1679064941693881,123444.0,139556.0,11263.0
1679064941703881,123238.0,139044.0,11271.0
1679064941712881,123042.0,138627.0,11277.0
1679064941722881,122865.0,138235.0,11280.0
1679064941733881,122683.0,137887.0,11268.0
1679064941743881,122510.0,137540.0,11280.0
1679064941753881,122341.0,137287.0,11261.0
1679064941762881,122140.0,136948.0,11226.0
1679064941772881,121935.0,136565.0,11228.0
1679064941783881,121710.0,136198.0,11244.0
1679064941793881,121533.0,135708.0,11230.0
1679064941802881,121341.0,135283.0,11248.0
1679064941813881,121251.0,134958.0,11290.0
1679064941822881,121192.0,134728.0,11270.0
1679064941833881,121094.0,134357.0,11283.0
1679064941842881,121045.0,133970.0,11304.0
1679064941852881,120927.0,133500.0,11316.0
1679064941862881,120769.0,133032.0,11332.0
1679064941873880,120612.0,132577.0,11312.0
1679064941882881,120359.0,132067.0,11379.0
1679064941893880,120088.0,131467.0,11387.0
1679064941902881,119809.0,130834.0,11387.0
1679064941913880,119558.0,130674.0,11408.0
1679064941922881,119315.0,130171.0,11419.0
1679064941932881,119148.0,129712.0,11423.0
1679064941942881,118971.0,129302.0,11426.0
1679064941953881,118769.0,128864.0,11418.0
1679064941962881,118507.0,128448.0,11435.0
1679064941972881,118245.0,128020.0,11430.0
1679064941982881,117953.0,127545.0,11414.0
1679064941993881,117627.0,127020.0,11389.0
1679064942003881,117225.0,126493.0,11349.0
1679064942012881,116891.0,126062.0,11309.0
1679064942022881,116610.0,125744.0,11237.0
1679064942033881,116425.0,125565.0,11224.0
1679064942043881,116317.0,125472.0,11176.0
1679064942052881,116173.0,125415.0,11114.0
1679064942062881,116087.0,125352.0,11130.0
1679064942073881,116008.0,125249.0,11131.0
1679064942083881,115867.0,125071.0,11115.0
1679064942092881,115740.0,124875.0,11117.0
1679064942102881,115574.0,124626.0,11122.0
1679064942113880,115405.0,124380.0,11105.0
1679064942123881,115226.0,124188.0,11079.0
1679064942133881,115047.0,123967.0,11070.0
1679064942142881,114914.0,123733.0,11049.0
1679064942153881,114827.0,123555.0,11074.0
1679064942163881,114754.0,123419.0,11062.0
1679064942172881,114597.0,123195.0,11083.0
1679064942182881,114443.0,122954.0,11030.0
1679064942192881,114261.0,122659.0,11050.0
1679064942203881,114086.0,122383.0,11021.0
1679064942212881,113847.0,122035.0,11076.0
1679064942222881,113605.0,121570.0,11074.0
1679064942234881,113237.0,121020.0,11068.0
1679064942243881,112801.0,120358.0,11085.0
1679064942253881,112243.0,119517.0,11012.0
1679064942262881,111519.0,118616.0,10985.0
1679064942272881,110697.0,117714.0,10986.0
1679064942283881,109941.0,116860.0,10953.0
1679064942293881,109257.0,116130.0,10921.0
1679064942302881,108684.0,115488.0,10878.0
1679064942312881,108119.0,114926.0,10859.0
1679064942322881,107591.0,114334.0,10826.0
1679064942335881,107085.0,114380.0,10783.0
1679064942343881,106538.0,113871.0,10784.0
1679064942352881,106075.0,113388.0,10760.0
1679064942362881,105658.0,113052.0,10697.0
1679064942373881,105263.0,112698.0,10669.0
1679064942382881,104911.0,112352.0,10685.0
1679064942392881,104592.0,112091.0,10663.0
1679064942402881,104325.0,111893.0,10649.0
1679064942413881,104105.0,111718.0,10636.0
1679064942422881,103843.0,111459.0,10616.0
1679064942432881,103527.0,111154.0,10594.0
1679064942442881,103135.0,110805.0,10564.0
1679064942453881,102820.0,110500.0,10557.0
1679064942462881,102603.0,110274.0,10526.0
1679064942472881,102422.0,110105.0,10532.0
1679064942482881,102324.0,109932.0,10507.0
1679064942493881,102170.0,109758.0,10485.0
1679064942503881,102072.0,109515.0,10474.0
1679064942512881,102006.0,109405.0,10460.0
1679064942522881,101985.0,109324.0,10459.0
1679064942533881,102064.0,109379.0,10469.0
1679064942542881,102286.0,109475.0,10484.0
1679064942552881,102627.0,109781.0,10509.0
1679064942562881,103112.0,110168.0,10554.0
1679064942573881,103313.0,110231.0,10550.0
1679064942582881,103424.0,110330.0,10547.0
1679064942592881,103499.0,110436.0,10560.0
1679064942602881,103610.0,110533.0,10558.0
1679064942613880,103734.0,110653.0,10573.0
1679064942622881,103806.0,110691.0,10562.0
1679064942632881,103772.0,110648.0,10566.0
1679064942642881,103836.0,110725.0,10568.0
1679064942653880,103866.0,110820.0,10568.0
1679064942662881,104007.0,110904.0,10582.0
1679064942672881,104108.0,111011.0,10592.0
1679064942682881,104191.0,111072.0,10584.0
1679064942692881,104117.0,110971.0,10575.0
1679064942703881,103769.0,110574.0,10540.0
1679064942712881,103456.0,110191.0,10512.0
1679064942722881,103071.0,109737.0,10476.0
1679064942732881,102739.0,109296.0,10441.0
1679064942743881,102478.0,108999.0,10430.0
1679064942753881,102296.0,108807.0,10406.0
1679064942762881,102208.0,108703.0,10394.0
1679064942772881,102173.0,108620.0,10400.0
1679064942783881,102406.0,108819.0,10395.0
1679064942792881,102906.0,109322.0,10449.0
1679064942802881,103554.0,110048.0,10497.0
1679064942812881,104275.0,110795.0,10562.0
1679064942823881,104828.0,111415.0,10596.0
1679064942832881,105157.0,111762.0,10616.0
1679064942842881,105505.0,112134.0,10667.0
1679064942852881,106119.0,112903.0,10720.0
1679064942863881,107071.0,113887.0,10800.0
1679064942872881,108259.0,115289.0,10884.0
1679064942882881,109584.0,116840.0,11004.0
1679064942892881,111130.0,118659.0,11128.0
1679064942902881,112648.0,120646.0,11221.0
1679064942913881,114052.0,122543.0,11288.0
1679064942921881,115212.0,124291.0,11328.0
1679064942932881,116335.0,126112.0,11368.0
1679064942942880,117406.0,128071.0,11382.0
1679064942953880,118948.0,130689.0,11375.0
1679064942961880,120884.0,134099.0,11412.0
1679064942972880,122688.0,136935.0,11339.0
1679064942982880,123687.0,139575.0,11171.0
1679064942993880,123882.0,141403.0,10876.0
1679064943002880,122670.0,142067.0,10399.0
1679064943012880,121200.0,141755.0,10181.0
1679064943022881,121098.0,141588.0,10177.0
1679064943033881,120609.0,141507.0,10065.0
1679064943042881,119895.0,141225.0,9933.0
1679064943052881,119615.0,140708.0,9995.0
1679064943062881,119686.0,140145.0,10104.0
1679064943073881,119891.0,139648.0,10232.0
1679064943082881,120126.0,139085.0,10363.0
1679064943092881,120463.0,138508.0,10530.0
1679064943102881,120826.0,137831.0,10701.0
1679064943113880,121108.0,137379.0,10849.0
1679064943123880,121298.0,136943.0,10946.0
1679064943131880,121414.0,136665.0,11021.0
1679064943142880,121538.0,136519.0,11026.0
1679064943153880,121640.0,136581.0,11078.0
1679064943162880,121776.0,136742.0,11115.0
1679064943172880,121905.0,137076.0,11125.0
1679064943182880,122082.0,137458.0,11137.0
1679064943193880,122288.0,137921.0,11162.0
1679064943202881,122462.0,138440.0,11143.0
1679064943211881,122568.0,138920.0,11122.0
1679064943222881,122620.0,139383.0,11105.0
1679064943232881,122610.0,139761.0,11074.0
1679064943243881,122701.0,140107.0,11061.0
1679064943252881,122795.0,140465.0,11047.0
1679064943262881,123008.0,140767.0,11055.0
1679064943272881,123172.0,141061.0,11075.0
1679064943282881,123378.0,141311.0,11097.0
1679064943292881,123637.0,141526.0,11154.0
1679064943302881,123892.0,141774.0,11187.0
1679064943312881,124100.0,142086.0,11211.0
1679064943322881,124236.0,142466.0,11213.0
1679064943332881,124349.0,142915.0,11193.0
1679064943344881,124361.0,143467.0,11139.0
1679064943351881,124107.0,143950.0,11056.0
1679064943362881,123879.0,144294.0,10928.0
1679064943372881,123390.0,144582.0,10780.0
1679064943382881,122803.0,144720.0,10626.0
1679064943392881,122152.0,144758.0,10449.0
1679064943402881,121420.0,144695.0,10301.0
1679064943412881,120718.0,144519.0,10141.0
1679064943422881,119972.0,144251.0,9980.0
1679064943432881,119278.0,143917.0,9859.0
1679064943442881,118780.0,143450.0,9753.0
1679064943452881,118347.0,142930.0,9703.0
1679064943461881,118056.0,142417.0,9711.0
1679064943472881,117834.0,141950.0,9659.0
1679064943482881,117657.0,141481.0,9680.0
1679064943492881,117527.0,140972.0,9689.0
1679064943502881,117402.0,140484.0,9697.0
1679064943512881,117195.0,140044.0,9658.0
1679064943522881,116903.0,139730.0,9613.0
1679064943532881,116603.0,139566.0,9570.0
1679064943542881,116334.0,139496.0,9540.0
1679064943552881,116333.0,139560.0,9556.0
1679064943562881,116724.0,139747.0,9691.0
1679064943572881,117427.0,140012.0,9821.0
1679064943582881,118020.0,141905.0,9579.0
1679064943592881,119301.0,143882.0,10080.0
1679064943602881,121701.0,145268.0,10607.0
1679064943612881,123679.0,144714.0,11004.0
1679064943622881,122205.0,144771.0,10458.0
1679064943632881,118524.0,144044.0,9714.0
1679064943642881,115629.0,143986.0,9119.0
1679064943652881,115074.0,144512.0,9066.0
1679064943662881,116901.0,145576.0,9443.0
1679064943672881,120729.0,146081.0,10236.0
1679064943682881,124022.0,144533.0,11008.0
1679064943692881,125227.0,141776.0,11484.0
1679064943702881,124921.0,138560.0,11732.0
1679064943712881,123630.0,135368.0,11840.0
1679064943722881,122165.0,132720.0,11865.0
1679064943732881,120945.0,130805.0,11854.0
1679064943742881,120072.0,129446.0,11826.0
1679064943753881,119239.0,128319.0,11811.0
1679064943762881,118485.0,127260.0,11774.0
1679064943772881,117786.0,126303.0,11770.0
1679064943782881,116979.0,125202.0,11743.0
1679064943792881,116157.0,124099.0,11707.0
1679064943802881,115460.0,123303.0,11671.0
1679064943812881,115009.0,122697.0,11654.0
1679064943822881,114750.0,122392.0,11655.0
1679064943832881,114413.0,122007.0,11649.0
1679064943842881,113846.0,121374.0,11616.0
1679064943851881,113136.0,120558.0,11555.0
1679064943862881,112434.0,119709.0,11462.0
1679064943872881,111675.0,118863.0,11414.0
1679064943882881,110957.0,118077.0,11362.0
1679064943891881,110325.0,117417.0,11345.0
1679064943902881,109741.0,116803.0,11296.0
1679064943912881,109016.0,116012.0,11232.0
1679064943922881,108176.0,115106.0,11153.0
1679064943932881,107386.0,114293.0,11097.0
1679064943942881,106745.0,114168.0,11028.0
1679064943952881,106136.0,113475.0,10977.0
1679064943962881,105678.0,113004.0,10923.0
1679064943972881,105155.0,112386.0,10884.0
1679064943982881,104485.0,111638.0,10820.0
1679064943992881,103765.0,110737.0,10751.0
1679064944003881,103130.0,110070.0,10712.0
1679064944011880,102634.0,109492.0,10652.0
1679064944022880,102287.0,109016.0,10624.0
1679064944032880,102206.0,108875.0,10609.0
1679064944043880,102392.0,109019.0,10632.0
1679064944051880,102588.0,109114.0,10638.0
1679064944062880,102565.0,108944.0,10623.0
1679064944072880,102410.0,108708.0,10606.0
1679064944083880,102350.0,108549.0,10596.0
1679064944091880,102336.0,108431.0,10588.0
1679064944102881,102463.0,108535.0,10606.0
1679064944112881,102564.0,108581.0,10609.0
1679064944122881,102605.0,108532.0,10577.0
1679064944131881,102600.0,108461.0,10577.0
1679064944141881,102706.0,108527.0,10597.0
1679064944152881,102917.0,108647.0,10590.0
1679064944162881,103079.0,108785.0,10589.0
1679064944172881,103212.0,108868.0,10589.0
1679064944181881,103302.0,108898.0,10611.0
1679064944192881,103230.0,108788.0,10605.0
1679064944202881,102941.0,108434.0,10578.0
1679064944212881,102465.0,107906.0,10519.0
1679064944221881,101913.0,107283.0,10444.0
1679064944232881,101259.0,106627.0,10384.0
1679064944242881,100630.0,106004.0,10328.0
1679064944252881,100022.0,105473.0,10277.0
1679064944261881,99523.0,105054.0,10218.0
1679064944272881,99114.0,104715.0,10210.0
1679064944282881,98748.0,104393.0,10151.0
1679064944293881,98465.0,104183.0,10136.0
1679064944301880,98301.0,104051.0,10132.0
1679064944312880,98781.0,104081.0,10133.0
1679064944322880,98810.0,104188.0,10130.0
1679064944332880,98887.0,104327.0,10141.0
1679064944341880,99044.0,104532.0,10123.0
1679064944352880,99162.0,104690.0,10116.0
1679064944362880,99235.0,104805.0,10156.0
1679064944372880,99402.0,105076.0,10151.0
1679064944381880,99602.0,105377.0,10174.0
1679064944391880,99939.0,105783.0,10188.0
1679064944402880,100449.0,106395.0,10228.0
1679064944412880,101043.0,107109.0,10298.0
1679064944421880,101829.0,108021.0,10384.0
1679064944431880,102885.0,109257.0,10482.0
1679064944442880,104219.0,110768.0,10589.0
1679064944452880,105559.0,112308.0,10719.0
1679064944461881,107124.0,114173.0,10877.0
1679064944471881,109145.0,116688.0,11057.0
1679064944482881,111420.0,119480.0,11199.0
1679064944492881,113617.0,122352.0,11375.0
1679064944503881,115565.0,125004.0,11488.0
1679064944511880,117039.0,127951.0,11587.0
1679064944522880,119122.0,131247.0,11685.0
1679064944532880,121281.0,134590.0,11711.0
1679064944543880,123362.0,139065.0,11680.0
1679064944551880,125277.0,144048.0,11540.0
1679064944562880,126082.0,148402.0,11162.0
1679064944572880,124502.0,149738.0,10466.0
1679064944582880,115919.0,148304.0,8653.0
1679064944591880,107361.0,149628.0,7200.0
1679064944602880,106309.0,148678.0,7132.0
1679064944612880,107013.0,146835.0,7494.0
1679064944622880,111149.0,146269.0,8373.0
1679064944631880,113366.0,146659.0,8657.0
1679064944642881,113661.0,146547.0,8658.0
1679064944652881,113231.0,146473.0,8600.0
1679064944662881,114436.0,146818.0,8866.0
1679064944671881,116910.0,147303.0,9351.0
1679064944682881,118783.0,147522.0,9701.0
1679064944692881,120000.0,147657.0,9922.0
1679064944702881,120629.0,147728.0,10037.0
1679064944711881,121044.0,147748.0,10133.0
1679064944722881,121396.0,147703.0,10204.0
1679064944732881,121646.0,147686.0,10256.0
1679064944742881,121989.0,147700.0,10346.0
1679064944752881,122520.0,147727.0,10473.0
1679064944762881,123120.0,147773.0,10577.0
1679064944771881,123611.0,147791.0,10700.0
1679064944782881,123904.0,147874.0,10754.0
1679064944792881,124027.0,147997.0,10768.0
1679064944802881,124106.0,148099.0,10785.0
1679064944811881,124243.0,148220.0,10801.0
1679064944822881,124332.0,148344.0,10818.0
1679064944832881,124569.0,148388.0,10875.0
1679064944841881,124911.0,148493.0,10948.0
1679064944853881,125331.0,148522.0,11059.0
1679064944861881,125640.0,148448.0,11142.0
1679064944872881,125679.0,148468.0,11093.0
1679064944882881,125363.0,148600.0,11031.0
1679064944891881,124998.0,148620.0,10930.0
1679064944901881,124718.0,148523.0,10904.0
1679064944912881,124478.0,148335.0,10836.0
1679064944921881,124005.0,148055.0,10765.0
1679064944931881,123410.0,147665.0,10655.0
1679064944941881,122797.0,147273.0,10576.0
1679064944954881,122110.0,146834.0,10417.0
1679064944961881,121250.0,146373.0,10282.0
1679064944971881,120417.0,145823.0,10170.0
1679064944982881,119734.0,145235.0,10061.0
1679064944992881,119022.0,144577.0,9946.0
1679064945003881,118199.0,143984.0,9809.0
1679064945011881,117317.0,143318.0,9666.0
1679064945021881,116471.0,142694.0,9545.0
1679064945032881,115902.0,142107.0,9493.0
1679064945042881,115639.0,141626.0,9476.0
1679064945051881,115371.0,141252.0,9438.0
1679064945061881,115054.0,140988.0,9372.0
1679064945072881,114586.0,140885.0,9283.0
1679064945082881,114230.0,140952.0,9215.0
1679064945091881,114163.0,141241.0,9171.0
1679064945101881,115603.0,142960.0,9267.0
1679064945112881,116803.0,144564.0,9758.0
1679064945122881,120271.0,146544.0,10472.0
1679064945131881,123149.0,146901.0,11061.0
1679064945141881,125835.0,146818.0,11513.0
1679064945152881,124191.0,147179.0,10941.0
1679064945162881,119981.0,146397.0,10022.0
1679064945171881,115915.0,145448.0,9239.0
1679064945181881,114565.0,145375.0,9119.0
1679064945192881,116561.0,146399.0,9649.0
1679064945202881,121785.0,147050.0,10771.0
1679064945211881,125745.0,145067.0,11648.0
1679064945221881,126295.0,141471.0,12034.0
1679064945231881,125143.0,137831.0,12148.0
1679064945242881,123478.0,134678.0,12142.0
1679064945252881,121669.0,131789.0,12079.0
1679064945261881,120262.0,129656.0,12020.0
1679064945271881,119187.0,128584.0,11983.0
1679064945282881,118020.0,127086.0,11916.0
1679064945292881,116877.0,125640.0,11844.0
1679064945301881,115598.0,123971.0,11756.0
1679064945311881,114370.0,122369.0,11664.0
1679064945322881,113116.0,120787.0,11572.0
1679064945332881,112049.0,119456.0,11492.0
1679064945341881,111343.0,118635.0,11454.0
1679064945351881,111099.0,118313.0,11458.0
1679064945362881,111140.0,118380.0,11477.0
1679064945372881,111392.0,118728.0,11504.0
1679064945381881,111722.0,119040.0,11527.0
1679064945391881,111944.0,119248.0,11549.0
1679064945402881,112064.0,119354.0,11548.0
1679064945412881,112010.0,119218.0,11540.0
1679064945421881,111913.0,119115.0,11541.0
1679064945431881,111789.0,118966.0,11526.0
1679064945442881,111577.0,118690.0,11511.0
1679064945452881,111352.0,118387.0,11476.0
1679064945461881,111153.0,118085.0,11449.0
1679064945471881,110922.0,117828.0,11421.0
1679064945482881,110729.0,117599.0,11405.0
1679064945492881,110483.0,117320.0,11366.0
1679064945501881,110237.0,117017.0,11338.0
1679064945511881,110004.0,116784.0,11308.0
1679064945521881,109797.0,116487.0,11271.0
1679064945532881,109375.0,115938.0,11230.0
1679064945541881,109059.0,115553.0,11184.0
1679064945551881,108751.0,115219.0,11156.0
1679064945561881,108687.0,115190.0,11166.0
1679064945572881,108811.0,115378.0,11152.0
1679064945581881,109007.0,115608.0,11153.0
1679064945591881,109149.0,115767.0,11154.0
1679064945601881,109200.0,115852.0,11200.0
1679064945612881,109298.0,115920.0,11199.0
1679064945621881,109316.0,115952.0,11184.0
1679064945631881,109263.0,115878.0,11176.0
1679064945641881,109044.0,115632.0,11149.0
1679064945652881,108711.0,115233.0,11105.0
1679064945661881,108305.0,114729.0,11059.0
1679064945671881,107986.0,114319.0,10980.0
1679064945681881,107696.0,114545.0,10968.0
1679064945691881,107422.0,114301.0,10962.0
1679064945701881,107145.0,114004.0,10927.0
1679064945711881,106875.0,113665.0,10890.0
1679064945721881,106536.0,113274.0,10857.0
1679064945732881,106255.0,112958.0,10830.0
1679064945741881,106023.0,112644.0,10799.0
1679064945752881,105784.0,112357.0,10790.0
1679064945761881,105506.0,112031.0,10753.0
1679064945771881,105168.0,111674.0,10726.0
1679064945781881,104812.0,111296.0,10703.0
1679064945792881,104537.0,110991.0,10671.0
1679064945801881,104364.0,110815.0,10652.0
1679064945812881,104330.0,110770.0,10659.0
1679064945821881,104385.0,110845.0,10657.0
1679064945832881,104519.0,111110.0,10676.0
1679064945841881,104679.0,111328.0,10683.0
1679064945852881,104747.0,111464.0,10684.0
1679064945861881,104968.0,111785.0,10703.0
1679064945872881,105352.0,112303.0,10745.0
1679064945881881,105980.0,113068.0,10799.0
1679064945891881,106755.0,113993.0,10865.0
1679064945901881,107541.0,115047.0,10917.0
1679064945911881,108421.0,116176.0,10994.0
1679064945921881,109440.0,117512.0,11062.0
1679064945931881,110527.0,119010.0,11166.0
1679064945941881,111914.0,120893.0,11266.0
1679064945951881,113601.0,123330.0,11401.0
1679064945961881,115663.0,126272.0,11538.0
1679064945971881,117864.0,129541.0,11725.0
1679064945981881,119999.0,132796.0,11837.0
1679064945991881,122108.0,135613.0,11908.0
1679064946002881,124260.0,139201.0,11974.0
1679064946010881,126237.0,142802.0,12037.0
1679064946021880,127875.0,146454.0,11982.0
1679064946031880,128941.0,150332.0,11789.0
1679064946042880,128232.0,153566.0,11148.0
1679064946050880,123685.0,153832.0,10130.0
1679064946061880,116163.0,152856.0,8794.0
1679064946072880,109286.0,154303.0,7590.0
1679064946082881,108531.0,156999.0,7447.0
1679064946090881,108585.0,156469.0,7463.0
1679064946101881,108259.0,155268.0,7421.0
1679064946111881,107270.0,152303.0,7447.0
1679064946122881,107117.0,150843.0,7483.0
1679064946130880,107527.0,149162.0,7699.0
1679064946141880,109095.0,148379.0,8048.0
1679064946151880,111801.0,148227.0,8561.0
1679064946162880,115055.0,148866.0,9088.0
1679064946170880,117068.0,149203.0,9376.0
1679064946181880,117787.0,149241.0,9483.0
1679064946191880,117566.0,149101.0,9407.0
1679064946202880,116868.0,148818.0,9270.0
1679064946211880,116452.0,148580.0,9219.0
1679064946221880,116712.0,148571.0,9279.0
1679064946231880,117069.0,148685.0,9353.0
1679064946241880,117641.0,148863.0,9457.0
1679064946251880,118040.0,148971.0,9505.0
1679064946262881,118160.0,149009.0,9518.0
1679064946271881,118212.0,149090.0,9509.0
1679064946282881,118414.0,149213.0,9565.0
1679064946291881,118969.0,149401.0,9670.0
1679064946301881,119559.0,149604.0,9769.0
1679064946311881,120035.0,149702.0,9862.0
1679064946322881,120636.0,149813.0,10000.0
1679064946331881,121462.0,149894.0,10186.0
1679064946341881,122350.0,149915.0,10384.0
1679064946351881,123039.0,149828.0,10533.0
1679064946362881,123179.0,149714.0,10551.0
1679064946371881,122743.0,149572.0,10428.0
1679064946381881,122102.0,149394.0,10324.0
1679064946391881,121551.0,149110.0,10219.0
1679064946401881,121148.0,148798.0,10173.0
1679064946411881,120815.0,148376.0,10112.0
1679064946421881,120256.0,147961.0,10036.0
1679064946431881,119410.0,147516.0,9850.0
1679064946442881,118335.0,147018.0,9652.0
1679064946451881,117308.0,146529.0,9469.0
1679064946462881,116434.0,146052.0,9301.0
1679064946471881,115849.0,145609.0,9269.0
1679064946481881,115433.0,145157.0,9183.0
1679064946491881,115015.0,144736.0,9120.0
1679064946501881,114756.0,144427.0,9101.0
1679064946511881,114796.0,144207.0,9136.0
1679064946521881,114963.0,144129.0,9184.0
1679064946531881,115349.0,144171.0,9255.0
1679064946541881,115737.0,144271.0,9344.0
1679064946551881,116223.0,144430.0,9446.0
1679064946561881,117312.0,145675.0,9457.0
1679064946571881,119896.0,146475.0,10370.0
1679064946581881,123755.0,147195.0,11173.0
1679064946591881,125768.0,145600.0,11702.0
1679064946601881,123928.0,146274.0,11056.0
1679064946611881,120761.0,145211.0,10389.0
1679064946621881,118549.0,145185.0,9939.0
1679064946631881,118809.0,145782.0,10092.0
1679064946641881,121820.0,145839.0,10775.0
1679064946651881,124564.0,144362.0,11484.0
1679064946661881,125432.0,141266.0,11952.0
1679064946671881,124455.0,137555.0,12139.0
1679064946681881,122559.0,134048.0,12165.0
1679064946691881,120733.0,131069.0,12116.0
1679064946701881,118380.0,128197.0,12009.0
1679064946711881,116463.0,125762.0,11900.0
1679064946721881,114833.0,123882.0,11807.0
1679064946730881,113956.0,122905.0,11747.0
1679064946741881,113206.0,122019.0,11715.0
1679064946751881,112487.0,121112.0,11657.0
1679064946761881,111599.0,120009.0,11575.0
1679064946771881,110889.0,119117.0,11531.0
1679064946781881,110385.0,118527.0,11505.0
1679064946792881,110134.0,118251.0,11492.0
1679064946801881,110044.0,118124.0,11483.0
1679064946810881,109970.0,118041.0,11487.0
1679064946821881,109911.0,117996.0,11475.0
1679064946831881,109746.0,117797.0,11457.0
1679064946840881,109502.0,117522.0,11432.0
1679064946850881,109145.0,117129.0,11402.0
1679064946861881,108742.0,116651.0,11334.0
1679064946871881,108120.0,115960.0,11292.0
1679064946880881,107542.0,115309.0,11235.0
1679064946890881,106972.0,114679.0,11188.0
1679064946901881,106370.0,114590.0,11123.0
1679064946911881,105727.0,113941.0,11068.0
1679064946920881,105109.0,113310.0,10984.0
1679064946930881,104476.0,112649.0,10940.0
1679064946941881,103870.0,112028.0,10868.0
1679064946951881,103307.0,111469.0,10832.0
1679064946961881,102859.0,111006.0,10779.0
1679064946971881,102420.0,110578.0,10738.0
1679064946981881,102029.0,110191.0,10743.0
1679064946991881,101770.0,109908.0,10711.0
1679064947001881,101621.0,109740.0,10660.0
1679064947010881,101569.0,109711.0,10701.0
1679064947021881,101728.0,109893.0,10719.0
1679064947031881,101956.0,110164.0,10740.0
1679064947041881,102184.0,110377.0,10775.0
1679064947050881,102368.0,110524.0,10777.0
1679064947061881,102532.0,110659.0,10785.0
1679064947070881,102656.0,110744.0,10797.0
1679064947081881,102732.0,110739.0,10784.0
1679064947091881,102731.0,110688.0,10784.0
1679064947101881,102733.0,110642.0,10798.0
1679064947111881,102792.0,110680.0,10800.0
1679064947121881,102912.0,110798.0,10814.0
1679064947131881,102999.0,110846.0,10820.0
1679064947140881,102979.0,110803.0,10809.0
1679064947151881,102916.0,110710.0,10809.0
1679064947161881,102844.0,110615.0,10800.0
1679064947171881,102744.0,110496.0,10800.0
1679064947180881,102621.0,110322.0,10781.0
1679064947191881,102450.0,110119.0,10778.0
1679064947201881,102311.0,109942.0,10743.0
1679064947211881,102181.0,109793.0,10731.0
1679064947220881,102021.0,109630.0,10723.0
1679064947231881,101890.0,109453.0,10703.0
1679064947241881,101748.0,109272.0,10691.0
1679064947252881,101679.0,109164.0,10682.0
1679064947260881,101633.0,109099.0,10675.0
1679064947271880,101631.0,109073.0,10676.0
1679064947281880,101641.0,109015.0,10668.0
1679064947291880,101607.0,108953.0,10655.0
1679064947300881,101506.0,108824.0,10654.0
1679064947311880,101400.0,108709.0,10639.0
1679064947321880,101328.0,108611.0,10631.0
1679064947331880,101326.0,108591.0,10624.0
1679064947340881,101353.0,108602.0,10634.0
1679064947351881,101447.0,108666.0,10636.0
1679064947361881,101614.0,108779.0,10644.0
1679064947371881,101863.0,109016.0,10638.0
1679064947380881,102149.0,109266.0,10679.0
1679064947391881,102521.0,109652.0,10713.0
1679064947401881,102849.0,109958.0,10726.0
1679064947411881,103125.0,110185.0,10747.0
1679064947420881,103408.0,110405.0,10756.0
1679064947430881,103686.0,110660.0,10750.0
1679064947441881,103927.0,110902.0,10771.0
1679064947450881,104117.0,111106.0,10778.0
1679064947461881,104307.0,111313.0,10803.0
1679064947471881,104544.0,111541.0,10822.0
1679064947480881,104775.0,111776.0,10834.0
1679064947491881,105012.0,112025.0,10847.0
1679064947501881,105376.0,112403.0,10870.0
1679064947511880,105776.0,112770.0,10909.0
1679064947520881,106315.0,113328.0,10948.0
1679064947530881,106885.0,114026.0,10996.0
1679064947541881,107434.0,114684.0,11031.0
1679064947550881,107788.0,115098.0,11038.0
1679064947561881,108185.0,115609.0,11064.0
1679064947570881,108610.0,116127.0,11108.0
1679064947581881,109002.0,116649.0,11119.0
1679064947590881,109455.0,117227.0,11186.0
1679064947601881,109977.0,117895.0,11219.0
1679064947610881,110343.0,118446.0,11301.0
1679064947621881,110688.0,118931.0,11340.0
1679064947630881,111016.0,119399.0,11378.0
1679064947640881,111649.0,120215.0,11432.0
1679064947650881,112382.0,121110.0,11507.0
1679064947661881,113317.0,122266.0,11584.0
1679064947670881,114378.0,123565.0,11669.0
1679064947680881,115504.0,124963.0,11713.0
1679064947690881,116682.0,126415.0,11778.0
1679064947701881,117781.0,127909.0,11869.0
1679064947711881,118727.0,129232.0,11937.0
1679064947720881,119573.0,130569.0,11999.0
1679064947730881,120462.0,131878.0,12053.0
1679064947741881,121351.0,132734.0,12097.0
1679064947751881,122309.0,134250.0,12156.0
1679064947761881,123200.0,135747.0,12176.0
1679064947771881,124066.0,137234.0,12208.0
1679064947781881,124936.0,138844.0,12194.0
1679064947791881,125656.0,140399.0,12194.0
1679064947800881,126316.0,142151.0,12131.0
1679064947810881,126830.0,144127.0,11977.0
1679064947821881,126824.0,146159.0,11691.0
1679064947831881,125684.0,148058.0,11094.0
1679064947840881,121755.0,148212.0,9984.0
1679064947850881,116394.0,148162.0,8900.0
1679064947861881,111416.0,149263.0,7895.0
1679064947871881,109369.0,152347.0,7448.0
1679064947880881,109561.0,154955.0,7412.0
1679064947890881,109743.0,155300.0,7427.0
1679064947901881,109686.0,155327.0,7452.0
1679064947911881,109706.0,155308.0,7442.0
1679064947920881,109389.0,154430.0,7413.0
1679064947930881,108739.0,152936.0,7375.0
1679064947940881,108002.0,151035.0,7310.0
1679064947951881,107255.0,149049.0,7310.0
1679064947960881,106825.0,147741.0,7358.0
1679064947972881,106860.0,146964.0,7438.0
1679064947981881,107072.0,146334.0,7548.0
1679064947990881,107551.0,145754.0,7696.0
1679064948001881,108404.0,145569.0,7885.0
1679064948010881,109687.0,145437.0,8146.0
1679064948021881,111506.0,145690.0,8527.0
1679064948030881,113360.0,145944.0,8844.0
1679064948041881,114340.0,145930.0,9007.0
1679064948050881,114597.0,145737.0,9058.0
1679064948060881,114727.0,145519.0,9090.0
1679064948071881,114616.0,145262.0,9044.0
1679064948080881,114014.0,144853.0,8951.0
1679064948090881,113702.0,144451.0,8947.0
1679064948101881,114169.0,144329.0,9104.0
1679064948110881,115349.0,144329.0,9376.0
1679064948120881,117015.0,144424.0,9718.0
1679064948130881,118550.0,144389.0,10066.0
1679064948140881,119674.0,144098.0,10355.0
1679064948150881,120517.0,143753.0,10534.0
1679064948160881,121061.0,143411.0,10691.0
1679064948170881,121321.0,143126.0,10778.0
1679064948180881,121442.0,143028.0,10812.0
1679064948190881,121598.0,142999.0,10896.0
1679064948201881,121755.0,143082.0,10922.0
1679064948211881,121776.0,143211.0,10894.0
1679064948220881,121619.0,143447.0,10827.0
1679064948230881,121358.0,143637.0,10734.0
1679064948241881,121028.0,143751.0,10623.0
1679064948251881,121660.0,143663.0,10883.0
1679064948260881,123189.0,143822.0,11197.0
1679064948270881,123683.0,143510.0,11319.0
1679064948280881,124004.0,143986.0,11340.0
1679064948291881,124724.0,142939.0,11622.0
1679064948300881,125088.0,140977.0,11963.0
1679064948310881,124659.0,138458.0,12130.0
1679064948320881,124497.0,137796.0,12195.0
1679064948331881,124403.0,137027.0,12279.0
1679064948340881,123287.0,134721.0,12295.0
1679064948350881,121676.0,132256.0,12250.0
1679064948360881,120441.0,130574.0,12205.0
1679064948371881,119757.0,130113.0,12169.0
1679064948380881,119268.0,129520.0,12132.0
1679064948390881,119146.0,129440.0,12147.0
1679064948400881,119149.0,129450.0,12148.0
1679064948411881,119238.0,129614.0,12148.0
1679064948420881,119303.0,129663.0,12143.0
1679064948429881,119221.0,129566.0,12147.0
1679064948440881,118988.0,129294.0,12118.0
1679064948451881,118537.0,128671.0,12098.0
1679064948461881,117964.0,127870.0,12053.0
1679064948470881,117233.0,126930.0,12012.0
1679064948480881,116402.0,125935.0,11966.0
1679064948490881,115669.0,124945.0,11884.0
1679064948501881,114981.0,124110.0,11840.0
1679064948509880,114337.0,123430.0,11834.0
1679064948520880,113922.0,122923.0,11802.0
1679064948530880,113549.0,122503.0,11777.0
1679064948541880,113367.0,122295.0,11766.0
1679064948549880,113260.0,122208.0,11763.0
1679064948560880,113257.0,122223.0,11772.0
1679064948570880,113269.0,122253.0,11770.0
1679064948580880,113272.0,122243.0,11776.0
1679064948589880,113306.0,122216.0,11753.0
1679064948600881,113302.0,122198.0,11742.0
1679064948610881,113215.0,122112.0,11750.0
1679064948621881,113033.0,121948.0,11747.0
1679064948629881,112896.0,121780.0,11758.0
1679064948640880,112748.0,121609.0,11738.0
1679064948650880,112632.0,121489.0,11714.0
1679064948660880,112588.0,121435.0,11708.0
1679064948669880,112576.0,121446.0,11724.0
1679064948680880,112675.0,121566.0,11735.0
1679064948690880,112818.0,121681.0,11731.0
1679064948700880,112915.0,121815.0,11728.0
1679064948710880,113008.0,121978.0,11746.0
1679064948720880,113152.0,122113.0,11742.0
1679064948730880,113231.0,122213.0,11759.0
1679064948740880,113340.0,122311.0,11745.0
1679064948750880,113394.0,122412.0,11769.0
1679064948760880,113465.0,122475.0,11750.0
1679064948770880,113452.0,122443.0,11753.0
1679064948780881,113375.0,122322.0,11733.0
1679064948790881,113226.0,122130.0,11745.0
1679064948800881,113043.0,121933.0,11733.0
1679064948810881,112908.0,121695.0,11733.0
1679064948820881,112732.0,121489.0,11716.0
1679064948830881,112518.0,121274.0,11699.0
1679064948839881,112266.0,120951.0,11641.0
1679064948850881,112005.0,120624.0,11607.0
1679064948860881,111754.0,120295.0,11600.0
1679064948870881,111497.0,120018.0,11556.0
1679064948880881,111298.0,119755.0,11538.0
1679064948890881,111135.0,119572.0,11554.0
1679064948900881,110860.0,119245.0,11524.0
1679064948910881,110528.0,118815.0,11491.0
1679064948919881,110168.0,118399.0,11463.0
1679064948930881,109938.0,118107.0,11401.0
1679064948940881,109718.0,117852.0,11394.0
1679064948950881,109439.0,117489.0,11358.0
1679064948960881,109018.0,117035.0,11365.0
1679064948970881,108707.0,116653.0,11345.0
1679064948981881,108500.0,116351.0,11304.0
1679064948990881,108382.0,116229.0,11304.0
1679064949000881,108355.0,116185.0,11298.0
1679064949010881,108325.0,116168.0,11298.0
1679064949020881,108403.0,116210.0,11309.0
1679064949030881,108503.0,116316.0,11322.0
1679064949040881,108630.0,116420.0,11331.0
1679064949050881,108761.0,116558.0,11339.0
1679064949060881,108875.0,116637.0,11345.0
1679064949070881,108990.0,116781.0,11368.0
1679064949081881,109085.0,116872.0,11390.0
1679064949090881,109139.0,116954.0,11375.0
1679064949099881,109167.0,116991.0,11369.0
1679064949110881,109146.0,116998.0,11386.0
1679064949120881,109161.0,117020.0,11385.0
1679064949130881,109219.0,117079.0,11399.0
1679064949139881,109246.0,117101.0,11395.0
1679064949150881,109251.0,117096.0,11402.0
1679064949160881,109176.0,116948.0,11392.0
1679064949170881,108993.0,116761.0,11378.0
1679064949179881,108755.0,116497.0,11372.0
1679064949189881,108493.0,116214.0,11364.0
1679064949200881,108260.0,115929.0,11297.0
1679064949210881,108051.0,115696.0,11291.0
1679064949220881,107881.0,115519.0,11282.0
1679064949229881,107679.0,115352.0,11296.0
1679064949240881,107554.0,115189.0,11295.0
1679064949250881,107427.0,115066.0,11287.0
1679064949260881,107386.0,114975.0,11265.0
1679064949269881,107304.0,114872.0,11265.0
1679064949280881,107224.0,114777.0,11256.0
1679064949290881,107146.0,114679.0,11255.0
1679064949300881,107022.0,115093.0,11231.0
1679064949309881,106847.0,114912.0,11221.0
1679064949320881,106679.0,114702.0,11213.0
1679064949330881,106504.0,114501.0,11195.0
1679064949339881,106361.0,114274.0,11180.0
1679064949350881,106268.0,114180.0,11163.0
1679064949359881,106189.0,114079.0,11160.0
1679064949370881,106089.0,113939.0,11133.0
1679064949379881,105942.0,113763.0,11138.0
1679064949390881,105812.0,113573.0,11131.0
1679064949400881,105687.0,113478.0,11125.0
1679064949410881,105619.0,113356.0,11123.0
1679064949419881,105560.0,113297.0,11098.0
1679064949430881,105432.0,113123.0,11102.0
1679064949439881,105179.0,112823.0,11068.0
1679064949450881,104836.0,112432.0,11032.0
1679064949460881,104363.0,111866.0,10990.0
1679064949470881,103880.0,111346.0,10951.0
1679064949479881,103482.0,110897.0,10908.0
1679064949490881,103119.0,110528.0,10875.0
1679064949500881,102856.0,110240.0,10848.0
1679064949510881,102593.0,109969.0,10823.0
1679064949520881,102373.0,109689.0,10786.0
1679064949529881,102172.0,109497.0,10772.0
1679064949540881,101974.0,109290.0,10749.0
1679064949549881,101834.0,109143.0,10743.0
1679064949560881,101707.0,109018.0,10741.0
1679064949570881,101627.0,108924.0,10724.0
1679064949580881,101581.0,108886.0,10717.0
1679064949589881,101553.0,108806.0,10713.0
1679064949600881,101562.0,108881.0,10717.0
1679064949610881,101578.0,108895.0,10731.0
1679064949620881,101627.0,108880.0,10720.0
1679064949629881,101667.0,108886.0,10730.0
1679064949640881,101690.0,108943.0,10719.0
1679064949650881,101720.0,108954.0,10727.0
1679064949660881,101743.0,108979.0,10727.0
1679064949669881,101788.0,109020.0,10741.0
1679064949680881,101854.0,109077.0,10738.0
1679064949690881,101940.0,109151.0,10747.0
1679064949699881,102029.0,109252.0,10756.0
1679064949710881,102125.0,109365.0,10739.0
1679064949719881,102220.0,109466.0,10764.0
1679064949730881,102312.0,109534.0,10767.0
1679064949739881,102359.0,109649.0,10786.0
1679064949750881,102464.0,109765.0,10800.0
1679064949759881,102560.0,109864.0,10805.0
1679064949770881,102639.0,109952.0,10809.0
1679064949779881,102744.0,110063.0,10816.0
1679064949790881,102847.0,110177.0,10831.0
1679064949799881,103006.0,110303.0,10811.0
1679064949810881,103134.0,110423.0,10817.0
1679064949819881,103236.0,110530.0,10829.0
1679064949830881,103289.0,110650.0,10846.0
1679064949839881,103379.0,110719.0,10852.0
1679064949850880,103410.0,110781.0,10843.0
1679064949859881,103408.0,110811.0,10869.0
1679064949870881,103411.0,110805.0,10874.0
1679064949879881,103393.0,110804.0,10866.0
1679064949889881,103352.0,110729.0,10856.0
1679064949899881,103281.0,110616.0,10845.0
1679064949909881,103075.0,110473.0,10841.0
1679064949919881,102976.0,110296.0,10796.0
1679064949929881,102830.0,110145.0,10780.0
1679064949940881,102684.0,109971.0,10774.0
1679064949949881,102535.0,109835.0,10774.0
1679064949960881,102405.0,109714.0,10756.0
1679064949969881,102291.0,109568.0,10732.0
1679064949979881,102186.0,109461.0,10738.0
1679064949990881,102082.0,109351.0,10723.0
1679064950000881,102048.0,109296.0,10735.0
1679064950010881,101953.0,109203.0,10734.0
1679064950019881,101810.0,109042.0,10712.0
1679064950029881,101575.0,108781.0,10689.0
1679064950040881,101306.0,108477.0,10661.0
1679064950049881,101027.0,108182.0,10638.0
1679064950060881,100793.0,107915.0,10601.0
1679064950069881,100580.0,107679.0,10608.0
1679064950080881,100381.0,107504.0,10583.0
1679064950089881,100239.0,107331.0,10576.0
1679064950100881,100141.0,107200.0,10539.0
1679064950109881,100001.0,107022.0,10548.0
1679064950120881,99882.0,106889.0,10542.0
1679064950129881,99786.0,106797.0,10536.0
1679064950140881,99688.0,106679.0,10522.0
1679064950149881,99567.0,106540.0,10509.0
1679064950159881,99400.0,106327.0,10467.0
1679064950169881,99227.0,106145.0,10439.0
1679064950179881,99043.0,105946.0,10447.0
1679064950190881,98876.0,105749.0,10408.0
1679064950200881,98697.0,105542.0,10424.0
1679064950210881,98523.0,105351.0,10413.0
1679064950219881,98384.0,105196.0,10372.0
1679064950230881,98255.0,105036.0,10342.0
1679064950239881,98561.0,104898.0,10374.0
1679064950250881,98485.0,104758.0,10347.0
1679064950259881,98400.0,104629.0,10339.0
1679064950269881,98327.0,104540.0,10331.0
1679064950280881,98241.0,104504.0,10339.0
1679064950291880,98167.0,104409.0,10329.0
1679064950299880,98104.0,104329.0,10349.0
1679064950309880,98010.0,104243.0,10302.0
1679064950320880,97941.0,104162.0,10286.0
1679064950329880,97881.0,104110.0,10291.0
1679064950339880,97857.0,104103.0,10285.0
1679064950349880,97820.0,104071.0,10298.0
1679064950360880,97819.0,104082.0,10276.0
1679064950369880,97819.0,104097.0,10296.0
1679064950379880,97841.0,104124.0,10283.0
1679064950389880,97797.0,104153.0,10291.0
1679064950399881,97791.0,104141.0,10303.0
1679064950409881,97810.0,104114.0,10293.0
1679064950419881,97747.0,104119.0,10306.0
1679064950429881,97702.0,104101.0,10313.0
1679064950439881,97719.0,104117.0,10299.0
1679064950449881,97709.0,104100.0,10304.0
1679064950460881,97748.0,104120.0,10309.0
1679064950469881,97735.0,104073.0,10303.0
1679064950480881,97757.0,104124.0,10313.0
1679064950489881,97795.0,104089.0,10305.0
1679064950500881,97839.0,104141.0,10319.0
1679064950509881,97904.0,104271.0,10319.0
1679064950520881,97987.0,104303.0,10331.0
1679064950529881,98074.0,104374.0,10332.0
1679064950540881,98172.0,104491.0,10338.0
1679064950549881,98284.0,104589.0,10353.0
1679064950560881,98372.0,104689.0,10366.0
1679064950569881,98485.0,104798.0,10372.0
1679064950580881,98572.0,104918.0,10381.0
1679064950589881,98639.0,104970.0,10379.0
1679064950599881,98721.0,105060.0,10384.0
1679064950609881,98787.0,105130.0,10395.0
1679064950620881,98876.0,105236.0,10403.0
1679064950629881,98962.0,105308.0,10408.0
1679064950639881,99053.0,105429.0,10410.0
1679064950649881,99120.0,105518.0,10420.0
1679064950659881,99197.0,105606.0,10418.0
1679064950669881,99266.0,105673.0,10437.0
1679064950679881,99355.0,105759.0,10430.0
1679064950689881,99439.0,105852.0,10443.0
1679064950699881,99533.0,105938.0,10452.0
1679064950710881,99581.0,106011.0,10455.0
1679064950719881,99662.0,106088.0,10465.0
1679064950729881,99753.0,106187.0,10473.0
1679064950739881,99823.0,106274.0,10490.0
1679064950750881,99898.0,106356.0,10496.0
1679064950759881,99999.0,106430.0,10494.0
1679064950769881,100103.0,106556.0,10500.0
1679064950779881,100181.0,106584.0,10513.0
1679064950790881,100302.0,106732.0,10526.0
1679064950799881,100399.0,106833.0,10527.0
1679064950809881,100492.0,106917.0,10531.0
1679064950819881,100614.0,107045.0,10538.0
1679064950830881,100695.0,107106.0,10536.0
1679064950839881,100783.0,107193.0,10545.0
1679064950849881,100890.0,107304.0,10544.0
1679064950859881,101010.0,107410.0,10561.0
1679064950869881,101123.0,107531.0,10565.0
1679064950879881,101243.0,107632.0,10561.0
1679064950888881,101335.0,107732.0,10583.0
1679064950899881,101429.0,107830.0,10593.0
1679064950910880,101479.0,107856.0,10608.0
1679064950919880,101562.0,107925.0,10608.0
1679064950929880,101616.0,107992.0,10618.0
1679064950939881,101697.0,108072.0,10618.0
1679064950949881,101797.0,108204.0,10629.0
1679064950960881,101943.0,108341.0,10623.0
1679064950968881,102061.0,108498.0,10629.0
1679064950979880,102229.0,108658.0,10640.0
1679064950989880,102356.0,108788.0,10645.0
1679064951000880,102505.0,108883.0,10691.0
1679064951009880,102638.0,109050.0,10706.0
1679064951019880,102754.0,109163.0,10714.0
1679064951029880,102860.0,109229.0,10739.0
1679064951040880,102958.0,109356.0,10743.0
1679064951049880,103057.0,109441.0,10755.0
1679064951059880,103145.0,109559.0,10763.0
1679064951069880,103237.0,109607.0,10752.0
1679064951080880,103315.0,109687.0,10772.0
1679064951089880,103399.0,109755.0,10770.0
1679064951099880,103469.0,109833.0,10776.0
1679064951109880,103536.0,109958.0,10770.0
1679064951120881,103599.0,109976.0,10787.0
1679064951129881,103655.0,110024.0,10788.0
1679064951139881,103702.0,110078.0,10759.0
1679064951149881,103705.0,110124.0,10798.0
1679064951159881,103736.0,110181.0,10799.0
1679064951169881,103800.0,110231.0,10797.0
1679064951179881,103875.0,110234.0,10801.0
1679064951189881,103936.0,110285.0,10816.0
1679064951200881,103993.0,110331.0,10808.0
1679064951210881,104053.0,110416.0,10807.0
1679064951219881,104115.0,110494.0,10823.0
1679064951229881,104170.0,110565.0,10833.0
1679064951239881,104224.0,110572.0,10830.0
1679064951250881,104257.0,110605.0,10824.0
1679064951259881,104287.0,110618.0,10830.0
1679064951269881,104307.0,110684.0,10831.0
1679064951279881,104331.0,110694.0,10835.0
1679064951290881,104348.0,110723.0,10847.0
1679064951299881,104369.0,110756.0,10836.0
1679064951309881,104435.0,110810.0,10849.0
1679064951319881,104491.0,110867.0,10847.0
1679064951330881,104560.0,110952.0,10848.0
1679064951339881,104618.0,110990.0,10851.0
1679064951348881,104679.0,111040.0,10860.0
1679064951359881,104707.0,111086.0,10833.0
1679064951369881,104730.0,111109.0,10839.0
1679064951379881,104789.0,111148.0,10823.0
1679064951388881,104769.0,111189.0,10872.0
1679064951399881,104796.0,111211.0,10856.0
1679064951409881,104801.0,111200.0,10855.0
1679064951419881,104848.0,111177.0,10817.0
1679064951428881,104824.0,111166.0,10818.0
1679064951439881,104825.0,111149.0,10801.0
1679064951449881,104791.0,111147.0,10847.0
1679064951460881,104810.0,111161.0,10844.0
1679064951468881,104814.0,111185.0,10842.0
1679064951479881,104868.0,111211.0,10835.0
1679064951489881,104901.0,111254.0,10840.0
1679064951500881,104914.0,111262.0,10839.0
1679064951508880,104951.0,111258.0,10837.0
1679064951519880,104972.0,111352.0,10843.0
1679064951529880,104976.0,111391.0,10853.0
1679064951539880,105049.0,111430.0,10823.0
1679064951549880,105100.0,111468.0,10825.0
1679064951558880,105104.0,111513.0,10842.0
1679064951569880,105116.0,111563.0,10859.0
1679064951579880,105118.0,111585.0,10859.0
1679064951589880,105111.0,111603.0,10857.0
1679064951598880,105122.0,111611.0,10857.0
1679064951609880,105124.0,111637.0,10848.0
1679064951619880,105184.0,111681.0,10863.0
1679064951629880,105189.0,111707.0,10858.0
1679064951638880,105190.0,111720.0,10863.0
1679064951649880,105181.0,111726.0,10858.0
1679064951659881,105192.0,111711.0,10841.0
1679064951669881,105151.0,111721.0,10841.0
1679064951678881,105167.0,111723.0,10852.0
1679064951689881,105161.0,111678.0,10859.0
1679064951699881,105169.0,111675.0,10857.0
1679064951709881,105178.0,111735.0,10848.0
1679064951719881,105188.0,111790.0,10826.0
1679064951728881,105206.0,111819.0,10829.0
1679064951739881,105210.0,111832.0,10826.0
1679064951749881,105230.0,111883.0,10830.0
1679064951759881,105262.0,111950.0,10819.0
1679064951768881,105307.0,111989.0,10832.0
1679064951779881,105304.0,112066.0,10864.0
1679064951789881,105340.0,112115.0,10868.0
1679064951799881,105369.0,112193.0,10875.0
1679064951808881,105423.0,112253.0,10874.0
1679064951819881,105512.0,112291.0,10854.0
1679064951829881,105556.0,112348.0,10850.0
1679064951839881,105599.0,112418.0,10872.0
1679064951848881,105589.0,112456.0,10866.0
1679064951859881,105627.0,112470.0,10874.0
1679064951869881,105662.0,112475.0,10875.0
1679064951879881,105682.0,112540.0,10874.0
1679064951889881,105686.0,112585.0,10870.0
1679064951899881,105719.0,112639.0,10878.0
1679064951909881,105727.0,112659.0,10883.0
1679064951919881,105709.0,112648.0,10874.0
1679064951928881,105719.0,112643.0,10884.0
1679064951939881,105711.0,112669.0,10872.0
1679064951949881,105717.0,112704.0,10867.0
1679064951960881,105721.0,112763.0,10882.0
1679064951968881,105714.0,112740.0,10876.0
1679064951979880,105701.0,112745.0,10886.0
1679064951989880,105706.0,112765.0,10883.0
1679064952000880,105715.0,112783.0,10877.0
1679064952008880,105754.0,112816.0,10874.0
1679064952019881,105804.0,112916.0,10832.0
1679064952029881,105861.0,112960.0,10868.0
1679064952039881,105943.0,113099.0,10878.0
1679064952048881,106060.0,113224.0,10873.0
1679064952059881,106205.0,113400.0,10892.0
1679064952069881,106369.0,113591.0,10911.0
1679064952079881,106543.0,113834.0,10917.0
1679064952088881,106794.0,114137.0,10936.0
1679064952098881,107060.0,114493.0,10957.0
1679064952109881,107413.0,114860.0,10995.0
1679064952119881,107775.0,115356.0,11018.0
1679064952129881,108164.0,115811.0,11061.0
1679064952138881,108573.0,116316.0,11092.0
1679064952149881,108916.0,116710.0,11132.0
1679064952159881,109250.0,117145.0,11155.0
1679064952169881,109568.0,117549.0,11198.0
1679064952178881,109791.0,117823.0,11230.0
1679064952189881,109950.0,118025.0,11257.0
1679064952199881,110061.0,118161.0,11260.0
1679064952210881,110159.0,118275.0,11283.0
1679064952218881,110264.0,118463.0,11285.0
1679064952228881,110390.0,118602.0,11289.0
1679064952239880,110526.0,118746.0,11310.0
1679064952249880,110642.0,118900.0,11329.0
1679064952259880,110743.0,119067.0,11327.0
1679064952268880,110843.0,119179.0,11345.0
1679064952279880,110924.0,119265.0,11352.0
1679064952289880,111002.0,119325.0,11369.0
1679064952299880,111090.0,119455.0,11362.0
1679064952310880,111190.0,119544.0,11383.0
1679064952319880,111298.0,119687.0,11419.0
1679064952329880,111416.0,119899.0,11399.0
1679064952338880,111536.0,120053.0,11404.0
1679064952348880,111674.0,120207.0,11422.0
1679064952359880,111799.0,120373.0,11434.0
1679064952369880,111933.0,120520.0,11443.0
1679064952379881,112042.0,120639.0,11446.0
1679064952388881,112170.0,120786.0,11452.0
1679064952398881,112320.0,121010.0,11445.0
1679064952411881,112461.0,121216.0,11457.0
1679064952419881,112626.0,121426.0,11474.0
1679064952428881,112834.0,121665.0,11480.0
1679064952438881,113003.0,121919.0,11494.0
1679064952449881,113207.0,122166.0,11491.0
1679064952459881,113407.0,122427.0,11500.0
1679064952468881,113585.0,122688.0,11508.0
1679064952478881,113775.0,122920.0,11513.0
1679064952489881,113943.0,123119.0,11519.0
1679064952499881,114110.0,123345.0,11550.0
1679064952508881,114279.0,123556.0,11540.0
1679064952519881,114414.0,123766.0,11549.0
1679064952529881,114574.0,123951.0,11582.0
1679064952539881,114695.0,124131.0,11591.0
1679064952548881,114323.0,124288.0,11604.0
1679064952559881,114426.0,124460.0,11612.0
1679064952569881,114557.0,124592.0,11613.0
1679064952579881,114689.0,124749.0,11601.0
1679064952588881,114814.0,124985.0,11626.0
1679064952598881,114979.0,125211.0,11641.0
1679064952609881,115150.0,125465.0,11647.0
1679064952619881,115353.0,125653.0,11654.0
1679064952628881,115514.0,125809.0,11666.0
1679064952638881,115692.0,126030.0,11673.0
1679064952649881,115868.0,126256.0,11690.0
1679064952659881,116028.0,126440.0,11691.0
1679064952669881,116154.0,126607.0,11702.0
1679064952678881,116285.0,126769.0,11717.0
1679064952689881,116383.0,126915.0,11719.0
1679064952699881,116471.0,127030.0,11718.0
1679064952709881,116527.0,127122.0,11728.0
1679064952718881,116590.0,127194.0,11729.0
1679064952729881,116627.0,127277.0,11730.0
1679064952739881,116672.0,127332.0,11739.0
1679064952749881,116698.0,127379.0,11737.0
1679064952758881,116744.0,127389.0,11734.0
1679064952768881,116756.0,127456.0,11723.0
1679064952779881,116789.0,127481.0,11733.0
1679064952788881,116817.0,127546.0,11722.0
1679064952798881,116806.0,127593.0,11727.0
1679064952808881,116834.0,127634.0,11733.0
1679064952819881,116876.0,127654.0,11722.0
1679064952828881,116878.0,127684.0,11710.0
1679064952838881,116923.0,127712.0,11703.0
1679064952848881,116921.0,127723.0,11720.0
1679064952859881,116939.0,127745.0,11709.0
1679064952868881,116943.0,127774.0,11717.0
1679064952878881,116970.0,127784.0,11701.0
1679064952888881,116986.0,127809.0,11727.0
1679064952898881,117024.0,127856.0,11721.0
1679064952908881,117058.0,127915.0,11712.0
1679064952919881,117107.0,127973.0,11731.0
1679064952928881,117116.0,127998.0,11741.0
1679064952938881,117164.0,128068.0,11742.0
1679064952948881,117180.0,128090.0,11708.0
1679064952959881,117224.0,128134.0,11696.0
1679064952968881,117254.0,128178.0,11707.0
1679064952978881,117278.0,128244.0,11731.0
1679064952988881,117291.0,128287.0,11725.0
1679064952999881,117343.0,128331.0,11720.0
1679064953008881,117382.0,128369.0,11732.0
1679064953018881,117405.0,128390.0,11713.0
1679064953028881,117435.0,128417.0,11746.0
1679064953039881,117474.0,128438.0,11737.0
1679064953048881,117490.0,128487.0,11730.0
1679064953058881,117515.0,128520.0,11742.0
1679064953068881,117521.0,128544.0,11728.0
1679064953079881,117553.0,128564.0,11732.0
1679064953087880,117551.0,128586.0,11740.0
1679064953098881,117564.0,128593.0,11737.0
1679064953108881,117576.0,128580.0,11718.0
1679064953119881,117527.0,128612.0,11756.0
1679064953128881,117576.0,128611.0,11757.0
1679064953138881,117553.0,128646.0,11753.0
1679064953148881,117537.0,128644.0,11762.0
1679064953159881,117604.0,128683.0,11750.0
1679064953169881,117640.0,128736.0,11750.0
1679064953178881,117676.0,128801.0,11746.0
1679064953188881,117712.0,128808.0,11749.0
1679064953199881,117737.0,128869.0,11764.0
1679064953209881,117787.0,128923.0,11752.0
1679064953218881,117825.0,128976.0,11759.0
1679064953228881,117875.0,129031.0,11759.0
1679064953239881,117915.0,129078.0,11765.0
1679064953248881,117910.0,129085.0,11774.0
1679064953258881,117923.0,129079.0,11773.0
1679064953268881,117887.0,129061.0,11776.0
1679064953279881,117884.0,129051.0,11768.0
1679064953288881,117864.0,129025.0,11766.0
1679064953298881,117886.0,128983.0,11763.0
1679064953308881,117878.0,128943.0,11765.0
1679064953319881,117822.0,128914.0,11760.0
1679064953329881,117795.0,128909.0,11745.0
1679064953337881,117726.0,128791.0,11749.0
1679064953348881,117681.0,128747.0,11735.0
1679064953358881,117644.0,128686.0,11733.0
1679064953369881,117597.0,128625.0,11731.0
1679064953378881,117578.0,128592.0,11719.0
1679064953388881,117545.0,128589.0,11710.0
1679064953398881,117503.0,128550.0,11737.0
1679064953409881,117522.0,128531.0,11728.0
1679064953419880,117515.0,128514.0,11712.0
1679064953428881,117463.0,128532.0,11718.0
1679064953438881,117496.0,128478.0,11722.0
1679064953449880,117506.0,128494.0,11716.0
1679064953458881,117448.0,128504.0,11723.0
1679064953468881,117493.0,128506.0,11734.0
1679064953478881,117534.0,128550.0,11718.0
1679064953489881,117528.0,128528.0,11717.0
1679064953498881,117552.0,128564.0,11712.0
1679064953507881,117565.0,128544.0,11718.0
1679064953520881,117586.0,128579.0,11704.0
1679064953529881,117609.0,128598.0,11712.0
1679064953539881,117610.0,128596.0,11719.0
1679064953548881,117614.0,128622.0,11728.0
1679064953558881,117624.0,128617.0,11725.0
1679064953569881,117633.0,128611.0,11726.0
1679064953578881,117612.0,128618.0,11718.0
1679064953588881,117602.0,128591.0,11724.0
1679064953598881,117610.0,128554.0,11721.0
1679064953609881,117600.0,128564.0,11725.0
1679064953618881,117575.0,128557.0,11720.0
1679064953628881,117573.0,128535.0,11719.0
1679064953638881,117588.0,128494.0,11723.0
1679064953648881,117583.0,128502.0,11723.0
1679064953658881,117584.0,128544.0,11719.0
1679064953668881,117599.0,128543.0,11703.0
1679064953678881,117605.0,128537.0,11704.0
1679064953688881,117610.0,128545.0,11698.0
1679064953699881,117580.0,128529.0,11717.0
1679064953708881,117617.0,128523.0,11718.0
1679064953718881,117626.0,128560.0,11722.0
1679064953728881,117632.0,128580.0,11715.0
1679064953738881,117614.0,128603.0,11731.0
1679064953748881,117607.0,128605.0,11729.0
1679064953758881,117658.0,128619.0,11719.0
1679064953768881,117695.0,128654.0,11730.0
1679064953778881,117720.0,128713.0,11727.0
1679064953788881,117764.0,128754.0,11727.0
1679064953798881,117803.0,128826.0,11725.0
1679064953808881,117848.0,128887.0,11727.0
1679064953819881,117902.0,128966.0,11725.0
1679064953828881,117940.0,128992.0,11727.0
1679064953838881,118004.0,129072.0,11736.0
1679064953848881,118042.0,129095.0,11736.0
1679064953858881,118083.0,129147.0,11736.0
1679064953868881,118106.0,129139.0,11737.0
1679064953878881,118131.0,129183.0,11748.0
1679064953888881,118144.0,129191.0,11749.0
1679064953898881,118148.0,129197.0,11751.0
1679064953908881,118159.0,129156.0,11750.0
1679064953919881,118159.0,129161.0,11749.0
1679064953928881,118146.0,129130.0,11748.0
1679064953938881,118143.0,129185.0,11754.0
1679064953948881,118126.0,129156.0,11753.0
1679064953959881,118129.0,129146.0,11750.0
1679064953968881,118105.0,129107.0,11739.0
1679064953978881,118099.0,129109.0,11744.0
1679064953988881,118083.0,129058.0,11742.0
1679064953999881,118059.0,129042.0,11739.0
1679064954008881,118045.0,129013.0,11747.0
1679064954018881,118030.0,129029.0,11742.0
1679064954028881,118038.0,129023.0,11740.0
1679064954039881,118033.0,129033.0,11745.0
1679064954048881,118065.0,129038.0,11740.0
1679064954058881,118062.0,129059.0,11744.0
1679064954068881,118085.0,129069.0,11739.0
1679064954079881,118097.0,129097.0,11744.0
1679064954088881,118099.0,129095.0,11738.0
1679064954098881,118100.0,129113.0,11745.0
1679064954108881,118116.0,129108.0,11744.0
1679064954119881,118129.0,129111.0,11743.0
1679064954128881,118117.0,129108.0,11737.0
1679064954138881,118130.0,129118.0,11742.0
1679064954148881,118117.0,129032.0,11741.0
1679064954159881,118109.0,129030.0,11742.0
1679064954168881,118112.0,129017.0,11734.0
1679064954178881,118088.0,129024.0,11739.0
1679064954188881,118100.0,128998.0,11733.0
1679064954198881,118090.0,129026.0,11731.0
1679064954208881,118064.0,129005.0,11711.0
1679064954217881,118066.0,128995.0,11696.0
1679064954228881,118044.0,128975.0,11701.0
1679064954238881,118046.0,128910.0,11742.0
1679064954249881,118013.0,128933.0,11737.0
1679064954258881,118015.0,128923.0,11732.0
1679064954268881,118007.0,128915.0,11735.0
1679064954278881,118003.0,128898.0,11727.0
1679064954289881,118006.0,128887.0,11736.0
1679064954297881,118014.0,128896.0,11729.0
1679064954308880,118011.0,128892.0,11735.0
1679064954318880,118019.0,128907.0,11728.0
1679064954329880,118006.0,128900.0,11733.0
1679064954337880,118023.0,128889.0,11727.0
1679064954348880,118015.0,128889.0,11723.0
1679064954358881,118019.0,128894.0,11727.0
1679064954368881,118019.0,128925.0,11733.0
1679064954378881,118060.0,128936.0,11690.0
1679064954387881,118054.0,128946.0,11740.0
1679064954398881,118055.0,128977.0,11737.0
1679064954408881,118081.0,129003.0,11739.0
1679064954418881,118099.0,129028.0,11706.0
1679064954428881,118130.0,129065.0,11695.0
1679064954438881,118166.0,129085.0,11734.0
1679064954448881,118183.0,129120.0,11724.0
1679064954459881,118211.0,129140.0,11734.0
1679064954468881,118244.0,129167.0,11731.0
1679064954478881,118278.0,129184.0,11738.0
1679064954488881,118293.0,129203.0,11731.0
1679064954498881,118313.0,129226.0,11738.0
1679064954507881,118330.0,129215.0,11718.0
1679064954517881,118333.0,129239.0,11745.0
1679064954528881,118341.0,129227.0,11737.0
1679064954539881,118331.0,129249.0,11748.0
1679064954547881,118318.0,129153.0,11750.0
1679064954557881,118320.0,129186.0,11737.0
1679064954568881,118317.0,129186.0,11716.0
1679064954578881,118337.0,129213.0,11707.0
1679064954588881,118337.0,129198.0,11716.0
1679064954597881,118259.0,129184.0,11755.0
1679064954608881,118260.0,129179.0,11754.0
1679064954618881,118242.0,129146.0,11748.0
1679064954628881,118245.0,129152.0,11761.0
1679064954637881,118230.0,129138.0,11730.0
1679064954648881,118274.0,129121.0,11733.0
1679064954658881,118286.0,129147.0,11718.0
1679064954668881,118289.0,129127.0,11714.0
1679064954677881,118295.0,129128.0,11734.0
1679064954688881,118310.0,129160.0,11701.0
1679064954698881,118299.0,129164.0,11726.0
1679064954708881,118320.0,129149.0,11704.0
1679064954717881,118310.0,129161.0,11720.0
1679064954729881,118308.0,129152.0,11709.0
1679064954738881,118262.0,129137.0,11734.0
1679064954748881,118261.0,129135.0,11747.0
1679064954757881,118229.0,129104.0,11741.0
1679064954768881,118252.0,129108.0,11747.0
1679064954778881,118228.0,129070.0,11739.0
1679064954788881,118237.0,129069.0,11734.0
1679064954797881,118227.0,129061.0,11755.0
1679064954808881,118252.0,129070.0,11734.0
1679064954818881,118226.0,129052.0,11743.0
1679064954829881,118200.0,129048.0,11752.0
1679064954837881,118181.0,129014.0,11731.0
1679064954848881,118204.0,129001.0,11710.0
1679064954857881,118195.0,128987.0,11727.0
1679064954868881,118144.0,128977.0,11737.0
1679064954878881,118144.0,128965.0,11746.0
1679064954888881,118157.0,128985.0,11732.0
1679064954898881,118189.0,128976.0,11731.0
1679064954908881,118180.0,128990.0,11731.0
1679064954918881,118182.0,128907.0,11736.0
1679064954930881,118172.0,128962.0,11735.0
1679064954937881,118161.0,128957.0,11736.0
1679064954948881,118156.0,128915.0,11734.0
1679064954958881,118118.0,128959.0,11738.0
1679064954967881,118117.0,128944.0,11735.0
1679064954978881,118149.0,128975.0,11740.0
1679064954987881,118143.0,128964.0,11728.0
1679064954998881,118153.0,128998.0,11729.0
1679064955007881,118165.0,129008.0,11718.0
1679064955018881,118169.0,129037.0,11729.0
1679064955027881,118174.0,129059.0,11727.0
1679064955038881,118223.0,129104.0,11724.0
1679064955047881,118293.0,129138.0,11704.0
1679064955057881,118315.0,129166.0,11714.0
1679064955067881,118327.0,129186.0,11721.0
1679064955078881,118353.0,129194.0,11712.0
1679064955087881,118342.0,129196.0,11733.0
1679064955098881,118354.0,129184.0,11707.0
1679064955107881,118351.0,129156.0,11728.0
1679064955118881,118339.0,129169.0,11731.0
1679064955128881,118322.0,129149.0,11733.0
1679064955138881,118325.0,129139.0,11730.0
1679064955147881,118272.0,129119.0,11734.0
1679064955158881,118276.0,129081.0,11745.0
1679064955168881,118282.0,129067.0,11730.0
1679064955178881,118256.0,129043.0,11732.0
1679064955188881,118220.0,129006.0,11726.0
1679064955198881,118223.0,128996.0,11728.0
1679064955208881,118204.0,128964.0,11727.0
1679064955218881,118169.0,128950.0,11728.0
1679064955227881,118179.0,128951.0,11717.0
1679064955238880,118183.0,128946.0,11722.0
1679064955248880,118180.0,128912.0,11718.0
1679064955258881,118164.0,128939.0,11711.0
1679064955267881,118184.0,128914.0,11715.0
1679064955277881,118195.0,128947.0,11724.0
1679064955288881,118185.0,128974.0,11683.0
1679064955297881,118196.0,128978.0,11694.0
1679064955308881,118211.0,128973.0,11691.0
1679064955317881,118190.0,128957.0,11708.0
1679064955328881,118201.0,128977.0,11716.0
1679064955337881,118199.0,128983.0,11719.0
1679064955348881,118193.0,129002.0,11738.0
1679064955357881,118188.0,128997.0,11720.0
1679064955368881,118203.0,129017.0,11720.0
1679064955378881,118236.0,129013.0,11721.0
1679064955388881,118244.0,129017.0,11710.0
1679064955397881,118243.0,129028.0,11703.0
1679064955408881,118250.0,129023.0,11719.0
1679064955418881,118247.0,129014.0,11710.0
1679064955428881,118242.0,129030.0,11712.0
1679064955437881,118277.0,129027.0,11719.0
1679064955448881,118269.0,129037.0,11727.0
1679064955458881,118264.0,129032.0,11722.0
1679064955467881,118284.0,129042.0,11712.0
1679064955477881,118294.0,129065.0,11715.0
1679064955487881,118310.0,129084.0,11718.0
1679064955498881,118306.0,129111.0,11718.0
1679064955507881,118315.0,129075.0,11731.0
1679064955518881,118317.0,129102.0,11736.0
1679064955527881,118326.0,129095.0,11727.0
1679064955538881,118331.0,129126.0,11730.0
1679064955547881,118273.0,129134.0,11729.0
1679064955558881,118330.0,129092.0,11724.0
1679064955567881,118363.0,129119.0,11716.0
1679064955578881,118365.0,129178.0,11731.0
1679064955587881,118399.0,129169.0,11718.0
1679064955598881,118416.0,129244.0,11724.0
1679064955607881,118433.0,129299.0,11731.0
1679064955618881,118473.0,129320.0,11724.0
1679064955628881,118483.0,129329.0,11720.0
1679064955638881,118518.0,129404.0,11739.0
1679064955647881,118547.0,129410.0,11731.0
1679064955658881,118538.0,129455.0,11731.0
1679064955668881,118564.0,129467.0,11728.0
1679064955677881,118587.0,129451.0,11705.0
1679064955687881,118586.0,129445.0,11701.0
1679064955697881,118581.0,129421.0,11718.0
1679064955708881,118536.0,129422.0,11709.0
1679064955717881,118531.0,129398.0,11709.0
1679064955727881,118527.0,129392.0,11691.0
1679064955737881,118495.0,129337.0,11722.0
1679064955748881,118512.0,129270.0,11680.0
1679064955757881,118469.0,129268.0,11702.0
1679064955767881,118407.0,129225.0,11712.0
1679064955777881,118378.0,129183.0,11714.0
1679064955788881,118350.0,129157.0,11699.0
1679064955797881,118307.0,129115.0,11711.0
1679064955807881,118291.0,129084.0,11711.0
1679064955817881,118287.0,129063.0,11706.0
1679064955827881,118279.0,129036.0,11700.0
1679064955837881,118274.0,129018.0,11700.0
1679064955847881,118242.0,129023.0,11685.0
1679064955857881,118259.0,129045.0,11643.0
1679064955867881,118242.0,129038.0,11658.0
1679064955878881,118245.0,129053.0,11646.0
1679064955887881,118178.0,129035.0,11684.0
1679064955897881,118171.0,129038.0,11679.0
1679064955907881,118142.0,128985.0,11681.0
1679064955918881,118160.0,129019.0,11666.0
1679064955927881,118165.0,129048.0,11680.0
1679064955938881,118172.0,129065.0,11674.0
1679064955947881,118192.0,129071.0,11663.0
1679064955958881,118221.0,129045.0,11630.0
1679064955967881,118231.0,129047.0,11650.0
1679064955977881,118222.0,129045.0,11639.0
1679064955987881,118228.0,129062.0,11647.0
1679064955998881,118186.0,129060.0,11680.0
1679064956007881,118206.0,129056.0,11666.0
1679064956017881,118212.0,129068.0,11666.0
1679064956027881,118195.0,129066.0,11674.0
1679064956039881,118248.0,129072.0,11671.0
1679064956047881,118244.0,129069.0,11673.0
1679064956058881,118248.0,129029.0,11668.0
1679064956067881,118254.0,129070.0,11674.0
1679064956078881,118268.0,129094.0,11682.0
1679064956087881,118260.0,129060.0,11680.0
1679064956097881,118251.0,129076.0,11682.0
1679064956107881,118255.0,129039.0,11658.0
1679064956117881,118230.0,129019.0,11674.0
1679064956128881,118229.0,129007.0,11659.0
1679064956137881,118216.0,128998.0,11680.0
1679064956147881,118206.0,128983.0,11677.0
1679064956157881,118196.0,128953.0,11658.0
1679064956168881,118198.0,128946.0,11667.0
1679064956177881,118131.0,128935.0,11675.0
1679064956188881,118154.0,128874.0,11673.0
1679064956197881,118149.0,128868.0,11670.0
1679064956207881,118133.0,128869.0,11680.0
1679064956217881,118092.0,128913.0,11677.0
1679064956227881,118079.0,128907.0,11671.0
1679064956238880,118069.0,128903.0,11679.0
1679064956247881,118048.0,128896.0,11653.0
1679064956257881,118109.0,128905.0,11656.0
1679064956267881,118110.0,128917.0,11648.0
1679064956277881,118123.0,128939.0,11625.0
1679064956287881,118137.0,128953.0,11660.0
1679064956297881,118150.0,128963.0,11663.0
1679064956307881,118148.0,128976.0,11649.0
1679064956317880,118173.0,128989.0,11627.0
1679064956327880,118173.0,128961.0,11634.0
1679064956337881,118181.0,128973.0,11626.0
1679064956347881,118163.0,128954.0,11648.0
1679064956357881,118175.0,128927.0,11637.0
1679064956367881,118097.0,128894.0,11675.0
1679064956378881,118095.0,128866.0,11669.0
1679064956387881,118049.0,128822.0,11676.0
1679064956397881,118064.0,128786.0,11655.0
1679064956407881,118040.0,128742.0,11657.0
1679064956418881,118006.0,128735.0,11662.0
1679064956427881,117995.0,128653.0,11658.0
1679064956437881,117961.0,128634.0,11653.0
1679064956447881,117931.0,128613.0,11650.0
1679064956458881,117905.0,128600.0,11650.0
1679064956467881,117894.0,128605.0,11655.0
1679064956477881,117886.0,128577.0,11647.0
1679064956487881,117849.0,128583.0,11647.0
1679064956498880,117828.0,128558.0,11653.0
1679064956506880,117805.0,128539.0,11655.0
1679064956517881,117808.0,128535.0,11655.0
1679064956527881,117771.0,128510.0,11650.0
1679064956538881,117808.0,128497.0,11642.0
1679064956547881,117800.0,128474.0,11651.0
1679064956557881,117793.0,128436.0,11640.0
1679064956567881,117789.0,128433.0,11633.0
1679064956577881,117741.0,128478.0,11654.0
1679064956587881,117773.0,128490.0,11649.0
1679064956597881,117775.0,128506.0,11647.0
1679064956607881,117814.0,128510.0,11648.0
1679064956617881,117828.0,128515.0,11642.0
1679064956628881,117815.0,128519.0,11638.0
1679064956637881,117813.0,128524.0,11641.0
1679064956647881,117809.0,128516.0,11649.0
1679064956657881,117826.0,128508.0,11638.0
1679064956668881,117791.0,128546.0,11658.0
1679064956676880,117799.0,128535.0,11652.0
1679064956687880,117794.0,128542.0,11650.0
1679064956697881,117799.0,128537.0,11656.0
1679064956708881,117803.0,128543.0,11656.0
1679064956717881,117829.0,128548.0,11654.0
1679064956727881,117850.0,128546.0,11630.0
1679064956737881,117866.0,128543.0,11640.0
1679064956747881,117864.0,128549.0,11641.0
1679064956757881,117864.0,128546.0,11656.0
1679064956767881,117823.0,128585.0,11659.0
1679064956777881,117829.0,128578.0,11650.0
1679064956787881,117860.0,128576.0,11654.0
1679064956797881,117855.0,128578.0,11646.0
1679064956807881,117847.0,128563.0,11652.0
1679064956817881,117847.0,128569.0,11647.0
1679064956827881,117852.0,128567.0,11643.0
1679064956837881,117858.0,128581.0,11645.0
1679064956847881,117860.0,128598.0,11641.0
1679064956857881,117888.0,128646.0,11646.0
1679064956867881,117865.0,128640.0,11638.0
1679064956878881,117910.0,128698.0,11645.0
1679064956887881,117922.0,128734.0,11637.0
1679064956897881,117930.0,128703.0,11647.0
1679064956907881,117950.0,128803.0,11617.0
1679064956917881,118001.0,128872.0,11606.0
1679064956927881,118048.0,128897.0,11621.0
1679064956937881,118080.0,128927.0,11641.0
1679064956948881,118123.0,128964.0,11658.0
1679064956957881,118166.0,128997.0,11649.0
1679064956967881,118188.0,129078.0,11665.0
1679064956977881,118213.0,129091.0,11659.0
1679064956987881,118219.0,129091.0,11674.0
1679064956997881,118221.0,129056.0,11677.0
1679064957007881,118226.0,129058.0,11678.0
1679064957017881,118221.0,129064.0,11673.0
1679064957027881,118211.0,129028.0,11673.0
1679064957037881,118198.0,129003.0,11682.0
1679064957049881,118203.0,129011.0,11685.0
1679064957057881,118194.0,128999.0,11662.0
1679064957067881,118162.0,129004.0,11663.0
1679064957077881,118176.0,128978.0,11665.0
1679064957087881,118164.0,128938.0,11668.0
1679064957097881,118174.0,128951.0,11671.0
1679064957107881,118156.0,128933.0,11675.0
1679064957117881,118174.0,128966.0,11671.0
1679064957128881,118184.0,128986.0,11677.0
1679064957137881,118192.0,128988.0,11674.0
1679064957146881,118210.0,129019.0,11658.0
1679064957157881,118203.0,129028.0,11654.0
1679064957168881,118203.0,129001.0,11677.0
1679064957177881,118211.0,129037.0,11670.0
1679064957187881,118216.0,129036.0,11682.0
1679064957197881,118215.0,129017.0,11678.0
1679064957208881,118200.0,129002.0,11667.0
1679064957216880,118182.0,129023.0,11665.0
1679064957227880,118187.0,128988.0,11681.0
1679064957237881,118176.0,128980.0,11678.0
1679064957247881,118164.0,128991.0,11683.0
1679064957256881,118182.0,128979.0,11645.0
1679064957266881,118183.0,128952.0,11672.0
1679064957277881,118167.0,128941.0,11668.0
1679064957287881,118165.0,128939.0,11659.0
1679064957297881,118120.0,128941.0,11686.0
1679064957306881,118106.0,128909.0,11678.0
1679064957317881,118094.0,128897.0,11683.0
1679064957327881,118077.0,128864.0,11678.0
1679064957337881,118081.0,128866.0,11680.0
1679064957346881,118054.0,128848.0,11673.0
1679064957357881,118067.0,128834.0,11668.0
1679064957367881,118074.0,128826.0,11643.0
1679064957377881,118095.0,128836.0,11640.0
1679064957386881,118042.0,128822.0,11675.0
1679064957397881,118037.0,128819.0,11683.0
1679064957407881,118022.0,128790.0,11676.0
1679064957418881,118041.0,128780.0,11665.0
1679064957426881,118035.0,128802.0,11672.0
1679064957436881,118051.0,128750.0,11668.0
1679064957447881,118072.0,128779.0,11649.0
1679064957458881,118075.0,128787.0,11658.0
1679064957467881,118073.0,128789.0,11677.0
1679064957476881,118058.0,128807.0,11658.0
1679064957487881,118055.0,128791.0,11657.0
1679064957497881,118056.0,128782.0,11647.0
1679064957506881,118036.0,128757.0,11647.0
1679064957516881,118029.0,128750.0,11630.0
1679064957527881,118024.0,128766.0,11632.0
1679064957537881,118017.0,128773.0,11648.0
1679064957546881,118037.0,128795.0,11637.0
1679064957556881,118050.0,128838.0,11665.0
1679064957567880,118057.0,128874.0,11653.0
1679064957577880,118105.0,128932.0,11663.0
1679064957586881,118152.0,128982.0,11648.0
1679064957596881,118184.0,129012.0,11646.0
1679064957607881,118218.0,129058.0,11654.0
1679064957617881,118174.0,129068.0,11679.0
1679064957628881,118237.0,129060.0,11666.0
1679064957636880,118269.0,129053.0,11674.0
1679064957646880,118290.0,129082.0,11670.0
1679064957657880,118282.0,129141.0,11684.0
1679064957667880,118328.0,129118.0,11672.0
1679064957676880,118348.0,129134.0,11661.0
1679064957686880,118336.0,129130.0,11666.0
1679064957697880,118348.0,129122.0,11670.0
1679064957707880,118319.0,129088.0,11680.0
1679064957716880,118293.0,129069.0,11650.0
1679064957726880,118267.0,129028.0,11660.0
1679064957737880,118259.0,129006.0,11649.0
1679064957747880,118247.0,128979.0,11658.0
1679064957756880,118233.0,128960.0,11641.0
1679064957767880,118224.0,128974.0,11687.0
1679064957777881,118211.0,128945.0,11687.0
1679064957787881,118205.0,128940.0,11689.0
1679064957796881,118205.0,128946.0,11662.0
1679064957806881,118151.0,128927.0,11685.0
1679064957817881,118167.0,128906.0,11656.0
1679064957827881,118118.0,128888.0,11668.0
1679064957836881,118128.0,128852.0,11670.0
1679064957846881,118118.0,128847.0,11676.0
1679064957857881,118121.0,128863.0,11680.0
1679064957867881,118161.0,128847.0,11664.0
1679064957877881,118113.0,128831.0,11671.0
1679064957886881,118105.0,128826.0,11667.0
1679064957897881,118090.0,128816.0,11656.0
1679064957907881,118064.0,128779.0,11671.0
1679064957917881,118044.0,128762.0,11670.0
1679064957926881,118008.0,128720.0,11664.0
1679064957937881,117982.0,128716.0,11665.0
1679064957947881,117978.0,128693.0,11673.0
1679064957957881,118010.0,128678.0,11668.0
1679064957966881,118009.0,128676.0,11654.0
1679064957977881,118002.0,128695.0,11664.0
1679064957987881,117999.0,128654.0,11661.0
1679064957997881,117976.0,128630.0,11668.0
1679064958006881,117975.0,128602.0,11660.0
1679064958016881,117943.0,128566.0,11669.0
1679064958027881,117914.0,128529.0,11655.0
1679064958037881,117883.0,128483.0,11648.0
1679064958046881,117851.0,128457.0,11651.0
1679064958058881,117836.0,128418.0,11646.0
1679064958067881,117810.0,128397.0,11696.0
1679064958077881,117749.0,128378.0,11657.0
1679064958086881,117735.0,128322.0,11656.0
1679064958096881,117706.0,128288.0,11656.0
1679064958107881,117692.0,128271.0,11654.0
1679064958116881,117647.0,128240.0,11643.0
1679064958127881,117620.0,128175.0,11648.0
1679064958136881,117592.0,128112.0,11646.0
1679064958147881,117540.0,128060.0,11642.0
1679064958157881,117526.0,127991.0,11645.0
1679064958167881,117505.0,127944.0,11640.0
1679064958176881,117481.0,127962.0,11636.0
1679064958187881,117463.0,127953.0,11623.0
1679064958197881,117431.0,127908.0,11623.0
1679064958207881,117404.0,127917.0,11618.0
1679064958216881,117390.0,127938.0,11616.0
1679064958227881,117376.0,127893.0,11616.0
1679064958236881,117392.0,127929.0,11624.0
1679064958247881,117403.0,127961.0,11623.0
1679064958256881,117416.0,127980.0,11621.0
1679064958266881,117431.0,127994.0,11623.0
1679064958276881,117396.0,127996.0,11620.0
1679064958287881,117468.0,128026.0,11614.0
1679064958296881,117491.0,128029.0,11616.0
1679064958307881,117490.0,128032.0,11619.0
1679064958316881,117494.0,128025.0,11622.0
1679064958327881,117504.0,128018.0,11616.0
1679064958336881,117509.0,127981.0,11637.0
1679064958346881,117517.0,128011.0,11615.0
1679064958356881,117512.0,128012.0,11630.0
1679064958367881,117509.0,128021.0,11631.0
1679064958377881,117511.0,127996.0,11631.0
1679064958387881,117529.0,127987.0,11646.0
1679064958396881,117537.0,127995.0,11640.0
1679064958407881,117536.0,128013.0,11642.0
1679064958417881,117562.0,128015.0,11635.0
1679064958426881,117567.0,128059.0,11632.0
1679064958436881,117582.0,128085.0,11638.0
1679064958447881,117602.0,128110.0,11631.0
1679064958457881,117618.0,128147.0,11617.0
1679064958466881,117646.0,128197.0,11635.0
1679064958476881,117660.0,128287.0,11635.0
1679064958487881,117671.0,128325.0,11634.0
1679064958497881,117699.0,128334.0,11637.0
1679064958506881,117740.0,128389.0,11647.0
1679064958516881,117758.0,128398.0,11642.0
1679064958526881,117802.0,128452.0,11627.0
1679064958537881,117835.0,128498.0,11636.0
1679064958545881,117848.0,128512.0,11650.0
1679064958556881,117863.0,128519.0,11643.0
1679064958567880,117889.0,128543.0,11644.0
1679064958577880,117902.0,128510.0,11664.0
1679064958586881,117904.0,128570.0,11641.0
1679064958596881,117931.0,128589.0,11623.0
1679064958606881,117937.0,128596.0,11653.0
1679064958617880,117946.0,128622.0,11618.0
1679064958626881,117923.0,128625.0,11635.0
1679064958636880,117958.0,128643.0,11618.0
1679064958646880,117941.0,128626.0,11656.0
1679064958657880,117954.0,128623.0,11629.0
1679064958667880,117935.0,128626.0,11634.0
1679064958676881,117955.0,128613.0,11659.0
1679064958686881,117946.0,128604.0,11665.0
1679064958697881,117936.0,128585.0,11625.0
1679064958706881,117900.0,128595.0,11662.0
1679064958716881,117896.0,128581.0,11655.0
1679064958726881,117879.0,128568.0,11663.0
1679064958736881,117903.0,128509.0,11664.0
1679064958747881,117888.0,128479.0,11637.0
1679064958756881,117856.0,128453.0,11648.0
1679064958766881,117834.0,128438.0,11639.0
1679064958777881,117797.0,128392.0,11653.0
1679064958787881,117784.0,128351.0,11652.0
1679064958796881,117757.0,128318.0,11646.0
1679064958806881,117739.0,128299.0,11655.0
1679064958816881,117709.0,128288.0,11658.0
1679064958827880,117716.0,128237.0,11617.0
1679064958836881,117692.0,128219.0,11644.0
1679064958846881,117683.0,128183.0,11638.0
1679064958856881,117658.0,128190.0,11639.0
1679064958867881,117650.0,128155.0,11632.0
1679064958876881,117634.0,128193.0,11640.0
1679064958886881,117607.0,128191.0,11610.0
1679064958896881,117597.0,128184.0,11604.0
1679064958907881,117586.0,128199.0,11599.0
1679064958917881,117579.0,128173.0,11619.0
1679064958926881,117587.0,128189.0,11631.0
1679064958936881,117585.0,128197.0,11625.0
1679064958947881,117588.0,128174.0,11634.0
1679064958956881,117575.0,128155.0,11626.0
1679064958966881,117575.0,128129.0,11633.0
1679064958976881,117563.0,128084.0,11635.0
1679064958986881,117538.0,128043.0,11619.0
1679064958996881,117529.0,128026.0,11618.0
1679064959006881,117524.0,128003.0,11625.0
1679064959016881,117485.0,127956.0,11641.0
1679064959027881,117463.0,127941.0,11640.0
1679064959036881,117473.0,127894.0,11636.0
1679064959046881,117452.0,127866.0,11629.0
1679064959056881,117406.0,127752.0,11627.0
1679064959067881,117365.0,127694.0,11647.0
1679064959076881,117339.0,127684.0,11631.0
1679064959086881,117280.0,127628.0,11626.0
1679064959096881,117255.0,127510.0,11632.0
1679064959107881,117224.0,127485.0,11618.0
1679064959116881,117197.0,127451.0,11629.0
1679064959126881,117184.0,127474.0,11612.0
1679064959136881,117162.0,127446.0,11619.0
1679064959146881,117159.0,127435.0,11627.0
1679064959156881,117157.0,127427.0,11599.0
1679064959167881,117138.0,127434.0,11614.0
1679064959176881,117125.0,127355.0,11619.0
1679064959186881,117118.0,127388.0,11585.0
1679064959196881,117102.0,127361.0,11588.0
1679064959206881,117081.0,127346.0,11608.0
1679064959216881,117080.0,127346.0,11597.0
1679064959226881,117059.0,127335.0,11581.0
1679064959237881,117032.0,127334.0,11625.0
1679064959246881,117070.0,127315.0,11612.0
1679064959256881,117066.0,127335.0,11608.0
1679064959266881,117054.0,127325.0,11622.0
1679064959277881,117053.0,127297.0,11592.0
1679064959286881,117025.0,127276.0,11605.0
1679064959295881,117008.0,127284.0,11615.0
1679064959306881,116997.0,127240.0,11591.0
1679064959316881,116992.0,127228.0,11609.0
1679064959326881,116985.0,127191.0,11588.0
1679064959336881,116977.0,127191.0,11562.0
1679064959346881,116959.0,127181.0,11562.0
1679064959356881,116942.0,127155.0,11578.0
1679064959367880,116940.0,127147.0,11569.0
1679064959377880,116910.0,127103.0,11601.0
1679064959386880,116892.0,127086.0,11607.0
1679064959396881,116854.0,127042.0,11584.0
1679064959407881,116843.0,127019.0,11571.0
1679064959416881,116822.0,127006.0,11590.0
1679064959426881,116789.0,126938.0,11596.0
1679064959436881,116778.0,126908.0,11602.0
1679064959446881,116756.0,126889.0,11606.0
1679064959457881,116735.0,126856.0,11572.0
1679064959465880,116703.0,126844.0,11574.0
1679064959476880,116692.0,126812.0,11569.0
1679064959486880,116634.0,126742.0,11592.0
1679064959497880,116629.0,126713.0,11568.0
1679064959505880,116555.0,126667.0,11570.0
1679064959516880,116539.0,126646.0,11570.0
1679064959526880,116514.0,126601.0,11578.0
1679064959537880,116499.0,126577.0,11563.0
1679064959545880,116451.0,126525.0,11580.0
1679064959556880,116434.0,126500.0,11578.0
1679064959566880,116424.0,126477.0,11571.0
1679064959577881,116440.0,126492.0,11554.0
1679064959586881,116392.0,126471.0,11571.0
1679064959596881,116427.0,126494.0,11561.0
1679064959606881,116418.0,126487.0,11552.0
1679064959617881,116376.0,126489.0,11560.0
1679064959627881,116368.0,126478.0,11546.0
1679064959636881,116349.0,126501.0,11529.0
1679064959646881,116336.0,126510.0,11529.0
1679064959656881,116348.0,126530.0,11526.0
1679064959667881,116369.0,126550.0,11537.0
1679064959675881,116375.0,126600.0,11534.0
1679064959686880,116372.0,126589.0,11524.0
1679064959696880,116411.0,126627.0,11546.0
1679064959707880,116451.0,126674.0,11554.0
1679064959715880,116472.0,126705.0,11557.0
1679064959726880,116522.0,126734.0,11564.0
1679064959736880,116534.0,126757.0,11560.0
1679064959747880,116537.0,126752.0,11572.0
1679064959755881,116579.0,126774.0,11579.0
1679064959766881,116572.0,126758.0,11584.0
1679064959776881,116575.0,126724.0,11566.0
1679064959787881,116588.0,126726.0,11578.0
1679064959795880,116571.0,126709.0,11566.0
1679064959806880,116572.0,126706.0,11564.0
1679064959816880,116556.0,126686.0,11567.0
1679064959827880,116538.0,126653.0,11578.0
1679064959836880,116522.0,126645.0,11572.0
1679064959845880,116509.0,126629.0,11562.0
1679064959856880,116484.0,126613.0,11556.0
1679064959866880,116461.0,126580.0,11561.0
1679064959876880,116456.0,126565.0,11541.0
1679064959886880,116440.0,126522.0,11566.0
1679064959896880,116430.0,126526.0,11555.0
1679064959906880,116441.0,126562.0,11550.0
1679064959916880,116429.0,126556.0,11550.0
1679064959925880,116419.0,126534.0,11564.0
1679064959936881,116402.0,126498.0,11552.0
1679064959946881,116385.0,126482.0,11544.0
1679064959956881,116342.0,126440.0,11546.0
1679064959965881,116299.0,126433.0,11558.0
1679064959976881,116281.0,126418.0,11553.0
1679064959986881,116315.0,126391.0,11527.0
1679064959997881,116313.0,126394.0,11556.0
1679064960005880,116306.0,126377.0,11559.0
1679064960016880,116296.0,126393.0,11562.0
1679064960026880,116273.0,126346.0,11558.0
1679064960036880,116275.0,126349.0,11560.0
1679064960045880,116270.0,126325.0,11556.0
1679064960056880,116235.0,126314.0,11564.0
1679064960066880,116233.0,126285.0,11559.0
1679064960076880,116219.0,126291.0,11561.0
1679064960086880,116166.0,126283.0,11566.0
1679064960096880,116168.0,126286.0,11559.0
1679064960106880,116165.0,126302.0,11556.0
1679064960116881,116181.0,126280.0,11563.0
1679064960126881,116174.0,126289.0,11561.0
1679064960136881,116223.0,126314.0,11546.0
1679064960146881,116216.0,126284.0,11554.0
1679064960156881,116219.0,126298.0,11558.0
1679064960166881,116244.0,126290.0,11550.0
1679064960176881,116254.0,126329.0,11554.0
1679064960186881,116254.0,126286.0,11559.0
1679064960196881,116249.0,126338.0,11550.0
1679064960206881,116274.0,126330.0,11558.0
1679064960216881,116285.0,126365.0,11546.0
1679064960226881,116300.0,126386.0,11553.0
1679064960236881,116312.0,126442.0,11562.0
1679064960246881,116327.0,126470.0,11554.0
1679064960256881,116350.0,126491.0,11556.0
1679064960266881,116370.0,126509.0,11568.0
1679064960276881,116391.0,126558.0,11561.0
1679064960286881,116375.0,126584.0,11553.0
1679064960296881,116434.0,126644.0,11564.0
1679064960306881,116472.0,126684.0,11556.0
1679064960316881,116490.0,126777.0,11543.0
1679064960326881,116529.0,126888.0,11548.0
1679064960336881,116576.0,126961.0,11549.0
1679064960345881,116640.0,127071.0,11561.0
1679064960356881,116719.0,127131.0,11531.0
1679064960366881,116780.0,127245.0,11541.0
1679064960376881,116866.0,127327.0,11551.0
1679064960385881,116939.0,127410.0,11549.0
1679064960396881,117000.0,127487.0,11539.0
1679064960406881,117033.0,127517.0,11554.0
1679064960416881,117037.0,127570.0,11594.0
1679064960425881,117056.0,127584.0,11580.0
1679064960436881,117078.0,127606.0,11588.0
1679064960446881,117105.0,127627.0,11594.0
1679064960456881,117111.0,127643.0,11603.0
1679064960465881,117123.0,127680.0,11593.0
1679064960476881,117157.0,127671.0,11589.0
1679064960486881,117185.0,127633.0,11577.0
1679064960496881,117141.0,127635.0,11590.0
1679064960505881,117120.0,127599.0,11595.0
1679064960516881,117132.0,127607.0,11600.0
1679064960526881,117115.0,127594.0,11594.0
1679064960536881,117111.0,127643.0,11579.0
1679064960545881,117137.0,127636.0,11580.0
1679064960556881,117143.0,127670.0,11585.0
1679064960566881,117167.0,127708.0,11577.0
1679064960576881,117178.0,127738.0,11581.0
1679064960586881,117227.0,127771.0,11568.0
1679064960596881,117206.0,127783.0,11579.0
1679064960605881,117209.0,127803.0,11588.0
1679064960616881,117227.0,127831.0,11576.0
1679064960626881,117230.0,127843.0,11592.0
1679064960636880,117245.0,127860.0,11581.0
1679064960645881,117270.0,127893.0,11579.0
1679064960656881,117282.0,127925.0,11594.0
1679064960666881,117314.0,127941.0,11588.0
1679064960676881,117329.0,127958.0,11596.0
1679064960686881,117343.0,128054.0,11585.0
1679064960696881,117381.0,128033.0,11591.0
1679064960706881,117416.0,128041.0,11593.0
1679064960715881,117413.0,128079.0,11591.0
1679064960726881,117420.0,128105.0,11588.0
1679064960736881,117439.0,128114.0,11592.0
1679064960746881,117438.0,128114.0,11598.0
1679064960755881,117451.0,128155.0,11601.0
1679064960766881,117487.0,128167.0,11605.0
1679064960777881,117487.0,128197.0,11607.0
1679064960786881,117516.0,128212.0,11640.0
1679064960795881,117486.0,128236.0,11614.0
1679064960806881,117495.0,128224.0,11613.0
1679064960815881,117486.0,128236.0,11608.0
1679064960826881,117502.0,128224.0,11612.0
1679064960836881,117489.0,128215.0,11609.0
1679064960846881,117504.0,128239.0,11591.0
1679064960856881,117540.0,128284.0,11597.0
1679064960866881,117577.0,128326.0,11617.0
1679064960878881,117608.0,128368.0,11612.0
1679064960885881,117645.0,128389.0,11622.0
1679064960896881,117664.0,128452.0,11591.0
1679064960905881,117678.0,128490.0,11595.0
1679064960916881,117717.0,128516.0,11576.0
1679064960925881,117728.0,128547.0,11608.0
1679064960936881,117775.0,128573.0,11600.0
1679064960945881,117755.0,128605.0,11602.0
1679064960956881,117750.0,128619.0,11620.0
1679064960965881,117770.0,128636.0,11623.0
1679064960976881,117822.0,128665.0,11595.0
1679064960985881,117798.0,128713.0,11631.0
1679064960996881,117885.0,128786.0,11618.0
1679064961005881,117899.0,128856.0,11606.0
1679064961016881,117887.0,128922.0,11618.0
1679064961025881,117899.0,128997.0,11613.0
1679064961036881,117997.0,129075.0,11615.0
1679064961045881,118044.0,129139.0,11603.0
1679064961056881,118084.0,129219.0,11608.0
1679064961066881,118141.0,129258.0,11612.0
1679064961075881,118148.0,129337.0,11616.0
1679064961086881,118240.0,129403.0,11625.0
1679064961095881,118330.0,129459.0,11614.0
1679064961106881,118328.0,129531.0,11627.0
1679064961115881,118358.0,129540.0,11630.0
1679064961126881,118368.0,129562.0,11635.0
1679064961135881,118388.0,129554.0,11634.0
1679064961146881,118394.0,129573.0,11639.0
1679064961155881,118389.0,129560.0,11635.0
1679064961166881,118413.0,129554.0,11635.0
1679064961175881,118397.0,129541.0,11636.0
1679064961186881,118392.0,129538.0,11640.0
1679064961195881,118393.0,129521.0,11642.0
1679064961206881,118392.0,129522.0,11647.0
1679064961215881,118410.0,129505.0,11625.0
1679064961226881,118396.0,129496.0,11632.0
1679064961235881,118391.0,129498.0,11640.0
1679064961246881,118408.0,129507.0,11635.0
1679064961255881,118419.0,129547.0,11624.0
1679064961265881,118418.0,129577.0,11622.0
1679064961276881,118422.0,129608.0,11631.0
1679064961285881,118411.0,129525.0,11623.0
1679064961295881,118434.0,129632.0,11623.0
1679064961305881,118461.0,129656.0,11632.0
1679064961316881,118469.0,129688.0,11619.0
1679064961325881,118501.0,129717.0,11612.0
1679064961336881,118522.0,129748.0,11625.0
1679064961345881,118550.0,129760.0,11636.0
1679064961356881,118562.0,129777.0,11617.0
1679064961365881,118566.0,129787.0,11622.0
1679064961376881,118570.0,129795.0,11636.0
1679064961385881,118573.0,129799.0,11638.0
1679064961396881,118577.0,129786.0,11633.0
1679064961405881,118557.0,129733.0,11628.0
1679064961416881,118575.0,129770.0,11625.0
1679064961425881,118566.0,129737.0,11624.0
1679064961436881,118588.0,129813.0,11631.0
1679064961445881,118605.0,129826.0,11627.0
1679064961455881,118601.0,129824.0,11634.0
1679064961465881,118620.0,129814.0,11609.0
1679064961475881,118622.0,129813.0,11628.0
1679064961485881,118619.0,129804.0,11613.0
1679064961496881,118599.0,129787.0,11636.0
1679064961505881,118594.0,129759.0,11637.0
1679064961516881,118578.0,129731.0,11637.0
1679064961525881,118569.0,129709.0,11639.0
1679064961536881,118554.0,129692.0,11639.0
1679064961545881,118554.0,129696.0,11631.0
1679064961556881,118554.0,129734.0,11633.0
1679064961565881,118541.0,129706.0,11629.0
1679064961575881,118532.0,129668.0,11601.0
1679064961586881,118513.0,129653.0,11605.0
1679064961595881,118507.0,129640.0,11631.0
1679064961605881,118491.0,129624.0,11628.0
1679064961615881,118466.0,129585.0,11625.0
1679064961626881,118441.0,129558.0,11621.0
1679064961635881,118425.0,129528.0,11624.0
1679064961646881,118422.0,129451.0,11623.0
1679064961655881,118392.0,129454.0,11624.0
1679064961666881,118397.0,129456.0,11627.0
1679064961675881,118415.0,129434.0,11636.0
1679064961685881,118414.0,129470.0,11625.0
1679064961695881,118402.0,129496.0,11624.0
1679064961706881,118395.0,129445.0,11632.0
1679064961715881,118376.0,129435.0,11629.0
1679064961726881,118338.0,129436.0,11611.0
1679064961735881,118300.0,129458.0,11599.0
1679064961745881,118267.0,129450.0,11604.0
1679064961755881,118226.0,129447.0,11567.0
1679064961765881,118223.0,129477.0,11583.0
1679064961775881,118237.0,129473.0,11584.0
1679064961785881,118250.0,129497.0,11596.0
1679064961795881,118323.0,129532.0,11560.0
1679064961805881,118347.0,129545.0,11584.0
1679064961815881,118378.0,129524.0,11576.0
1679064961825881,118337.0,129500.0,11617.0
1679064961836881,118354.0,129469.0,11616.0
1679064961845881,118338.0,129427.0,11620.0
1679064961855881,118316.0,129394.0,11618.0
1679064961865881,118305.0,129376.0,11619.0
1679064961876881,118305.0,129335.0,11621.0
1679064961884880,118263.0,129300.0,11621.0
1679064961895880,118280.0,129254.0,11610.0
1679064961905880,118276.0,129218.0,11596.0
1679064961916881,118248.0,129185.0,11597.0
1679064961924881,118212.0,129111.0,11604.0
1679064961935881,118118.0,129077.0,11629.0
1679064961945881,118130.0,129026.0,11629.0
1679064961956880,118101.0,129004.0,11616.0
1679064961965880,118078.0,128963.0,11610.0
1679064961975880,118055.0,128920.0,11611.0
1679064961985880,118039.0,128903.0,11585.0
1679064961996880,118013.0,128874.0,11619.0
1679064962005880,118002.0,128865.0,11608.0
1679064962015880,117953.0,128844.0,11612.0
1679064962025880,117959.0,128795.0,11606.0
1679064962036880,117934.0,128765.0,11602.0
1679064962045880,117927.0,128747.0,11606.0
1679064962055880,117879.0,128706.0,11600.0
1679064962065880,117889.0,128686.0,11599.0
1679064962076880,117880.0,128675.0,11598.0
1679064962086880,117880.0,128655.0,11601.0
1679064962094881,117883.0,128662.0,11585.0
1679064962104881,117883.0,128640.0,11583.0
1679064962114881,117820.0,128599.0,11615.0
1679064962124881,117791.0,128574.0,11601.0
1679064962134881,117813.0,128505.0,11602.0
1679064962144881,117763.0,128436.0,11605.0
1679064962154881,117729.0,128393.0,11604.0
1679064962164881,117674.0,128324.0,11598.0
1679064962174881,117639.0,128273.0,11604.0
1679064962184881,117640.0,128208.0,11603.0
1679064962194881,117600.0,128171.0,11595.0
1679064962204881,117553.0,128156.0,11596.0
1679064962214881,117560.0,128115.0,11596.0
1679064962224881,117516.0,128038.0,11601.0
1679064962234881,117486.0,127998.0,11605.0
1679064962244881,117440.0,127931.0,11599.0
1679064962254881,117412.0,127884.0,11604.0
1679064962264881,117371.0,127798.0,11595.0
1679064962275881,117307.0,127730.0,11599.0
1679064962285881,117271.0,127673.0,11585.0
1679064962295881,117237.0,127637.0,11590.0
1679064962305881,117198.0,127524.0,11592.0
1679064962315881,117158.0,127482.0,11593.0
1679064962325881,117138.0,127415.0,11588.0
1679064962335881,117077.0,127424.0,11595.0
1679064962345881,117025.0,127399.0,11586.0
1679064962355881,116990.0,127334.0,11588.0
1679064962365881,116985.0,127272.0,11582.0
1679064962375881,116944.0,127221.0,11584.0
1679064962385881,116892.0,127205.0,11590.0
1679064962395881,116910.0,127156.0,11572.0
1679064962405881,116897.0,127128.0,11545.0
1679064962415881,116887.0,127112.0,11548.0
1679064962425881,116825.0,127093.0,11540.0
1679064962434881,116781.0,127057.0,11537.0
1679064962445881,116733.0,127019.0,11520.0
1679064962455881,116680.0,126973.0,11534.0
1679064962465881,116654.0,126958.0,11517.0
1679064962475881,116625.0,126949.0,11530.0
1679064962486881,116639.0,126907.0,11531.0
1679064962495881,116640.0,126897.0,11531.0
1679064962505881,116662.0,126954.0,11540.0
1679064962515881,116685.0,126978.0,11544.0
1679064962525881,116713.0,126993.0,11554.0
1679064962535881,116725.0,126984.0,11555.0
1679064962545881,116748.0,126921.0,11569.0
1679064962555881,116752.0,126900.0,11572.0
1679064962565881,116750.0,126889.0,11558.0
1679064962575881,116738.0,126901.0,11567.0
1679064962586881,116737.0,126895.0,11577.0
1679064962594880,116726.0,126817.0,11560.0
1679064962605880,116700.0,126874.0,11563.0
1679064962615880,116689.0,126882.0,11564.0
1679064962626880,116678.0,126857.0,11569.0
1679064962634881,116666.0,126819.0,11567.0
1679064962645881,116685.0,126851.0,11578.0
1679064962655881,116664.0,126796.0,11579.0
1679064962666880,116675.0,126827.0,11571.0
1679064962674880,116681.0,126826.0,11570.0
1679064962685880,116667.0,126819.0,11568.0
1679064962695880,116643.0,126822.0,11555.0
1679064962705880,116602.0,126825.0,11565.0
1679064962715880,116607.0,126804.0,11562.0
1679064962724880,116600.0,126805.0,11572.0
1679064962735880,116608.0,126810.0,11565.0
1679064962745880,116583.0,126814.0,11563.0
1679064962755880,116633.0,126845.0,11561.0
1679064962764880,116633.0,126869.0,11571.0
1679064962775880,116659.0,126888.0,11565.0
1679064962785880,116703.0,126899.0,11560.0
1679064962794880,116720.0,126923.0,11563.0
1679064962804880,116710.0,126915.0,11549.0
1679064962815881,116747.0,126930.0,11567.0
1679064962825881,116742.0,126923.0,11566.0
1679064962836881,116748.0,126917.0,11565.0
1679064962844881,116787.0,126940.0,11574.0
1679064962855881,116760.0,126952.0,11576.0
1679064962865881,116785.0,126933.0,11575.0
1679064962875881,116803.0,126985.0,11582.0
1679064962885881,116809.0,127006.0,11576.0
1679064962894881,116817.0,127009.0,11574.0
1679064962905881,116825.0,127023.0,11590.0
1679064962915881,116822.0,127021.0,11582.0
1679064962925881,116812.0,127011.0,11563.0
1679064962934881,116799.0,126991.0,11571.0
1679064962945881,116799.0,126982.0,11580.0
1679064962955881,116808.0,126985.0,11587.0
1679064962965880,116803.0,126969.0,11585.0
1679064962974881,116815.0,127022.0,11581.0
1679064962985880,116837.0,127039.0,11583.0
1679064962995881,116850.0,127049.0,11591.0
1679064963005881,116841.0,127106.0,11583.0
1679064963014881,116886.0,127110.0,11587.0
1679064963025881,116906.0,127068.0,11595.0
1679064963035881,116907.0,127052.0,11588.0
1679064963044881,116904.0,127065.0,11581.0
1679064963054881,116911.0,127134.0,11564.0
1679064963064881,116898.0,127098.0,11572.0
1679064963075881,116911.0,127127.0,11575.0
1679064963085881,116923.0,127149.0,11550.0
1679064963094881,116946.0,127182.0,11542.0
1679064963105881,116942.0,127178.0,11596.0
1679064963115881,116943.0,127203.0,11590.0
1679064963125881,116920.0,127241.0,11582.0
1679064963134881,116877.0,127186.0,11568.0
1679064963145881,116815.0,127165.0,11566.0
1679064963155881,116794.0,127139.0,11540.0
1679064963165881,116767.0,127139.0,11545.0
1679064963174881,116771.0,127200.0,11529.0
1679064963184881,116818.0,127242.0,11544.0
1679064963195881,116859.0,127324.0,11509.0
1679064963205881,116935.0,127387.0,11511.0
1679064963214881,116996.0,127456.0,11500.0
1679064963224881,117054.0,127503.0,11524.0
1679064963235881,117098.0,127570.0,11563.0
1679064963245881,117137.0,127610.0,11569.0
1679064963254881,117179.0,127644.0,11563.0
1679064963264881,117201.0,127673.0,11572.0
1679064963275881,117233.0,127705.0,11574.0
1679064963285881,117241.0,127735.0,11576.0
1679064963294881,117261.0,127759.0,11582.0
1679064963304881,117286.0,127759.0,11561.0
1679064963315881,117319.0,127773.0,11552.0
1679064963324881,117277.0,127790.0,11594.0
1679064963335881,117284.0,127798.0,11597.0
1679064963344881,117288.0,127803.0,11604.0
1679064963355881,117309.0,127828.0,11601.0
1679064963365881,117303.0,127834.0,11598.0
1679064963375881,117338.0,127839.0,11588.0
1679064963384881,117335.0,127829.0,11594.0
1679064963395881,117333.0,127878.0,11585.0
1679064963405881,117332.0,127882.0,11585.0
1679064963415881,117347.0,127887.0,11580.0
1679064963424881,117329.0,127867.0,11578.0
1679064963435881,117341.0,127908.0,11576.0
1679064963444881,117359.0,127925.0,11588.0
1679064963455881,117365.0,127965.0,11584.0
1679064963464881,117378.0,127965.0,11582.0
1679064963475881,117377.0,127986.0,11583.0
1679064963484881,117397.0,127993.0,11566.0
1679064963495881,117411.0,128031.0,11578.0
1679064963504881,117431.0,128050.0,11576.0
1679064963514881,117439.0,128062.0,11557.0
1679064963524881,117458.0,128073.0,11547.0
1679064963535881,117486.0,128115.0,11535.0
1679064963544881,117498.0,128135.0,11561.0
1679064963555881,117469.0,128159.0,11589.0
1679064963564881,117555.0,128145.0,11579.0
1679064963575881,117529.0,128181.0,11583.0
1679064963585881,117548.0,128179.0,11580.0
1679064963595881,117566.0,128218.0,11562.0
1679064963604881,117587.0,128246.0,11585.0
1679064963614881,117566.0,128241.0,11591.0
1679064963625881,117578.0,128248.0,11554.0
1679064963634881,117575.0,128263.0,11578.0
1679064963644881,117599.0,128275.0,11563.0
1679064963654881,117590.0,128282.0,11570.0
1679064963665881,117593.0,128278.0,11546.0
1679064963674881,117589.0,128280.0,11571.0
1679064963684881,117584.0,128298.0,11559.0
1679064963695881,117593.0,128292.0,11553.0
1679064963705881,117608.0,128328.0,11587.0
1679064963714881,117608.0,128332.0,11553.0
1679064963724881,117608.0,128365.0,11549.0
1679064963734881,117587.0,128359.0,11592.0
1679064963745881,117597.0,128370.0,11604.0
1679064963754881,117595.0,128373.0,11596.0
1679064963764881,117595.0,128394.0,11600.0
1679064963774881,117639.0,128337.0,11592.0
1679064963785881,117638.0,128347.0,11589.0
1679064963794881,117653.0,128357.0,11589.0
1679064963804881,117645.0,128397.0,11561.0
1679064963814881,117638.0,128401.0,11583.0
1679064963825881,117611.0,128416.0,11583.0
1679064963835881,117580.0,128407.0,11572.0
1679064963844881,117529.0,128386.0,11560.0
1679064963854881,117470.0,128366.0,11534.0
1679064963865881,117421.0,128352.0,11538.0
1679064963874881,117407.0,128363.0,11525.0
1679064963884881,117437.0,128394.0,11528.0
1679064963895881,117473.0,128436.0,11532.0
1679064963905881,117527.0,128516.0,11539.0
1679064963914881,117590.0,128553.0,11546.0
1679064963924881,117670.0,128614.0,11549.0
1679064963934881,117721.0,128674.0,11558.0
1679064963945881,117776.0,128727.0,11571.0
1679064963955881,117835.0,128724.0,11579.0
1679064963964881,117850.0,128749.0,11589.0
1679064963974881,117871.0,128762.0,11585.0
1679064963985881,117884.0,128807.0,11594.0
1679064963996881,117906.0,128818.0,11593.0
1679064964004881,117920.0,128831.0,11619.0
1679064964014881,117918.0,128844.0,11599.0
1679064964025880,117934.0,128849.0,11608.0
1679064964034881,117944.0,128850.0,11606.0
1679064964044880,117958.0,128861.0,11609.0
1679064964054880,117970.0,128876.0,11603.0
1679064964065880,117984.0,128908.0,11609.0
1679064964075881,118001.0,128941.0,11608.0
1679064964084881,118024.0,128964.0,11609.0
1679064964094881,118014.0,128989.0,11578.0
1679064964104881,118002.0,129003.0,11604.0
1679064964115881,118022.0,129067.0,11602.0
1679064964125881,118048.0,129113.0,11603.0
1679064964134881,118109.0,129144.0,11600.0
1679064964144881,118155.0,129189.0,11617.0
1679064964154881,118183.0,129232.0,11616.0
1679064964165881,118217.0,129254.0,11608.0
1679064964174881,118252.0,129303.0,11617.0
1679064964184881,118284.0,129355.0,11600.0
1679064964194881,118313.0,129377.0,11624.0
1679064964204881,118343.0,129408.0,11622.0
1679064964213881,118366.0,129436.0,11634.0
1679064964224881,118411.0,129488.0,11612.0
1679064964234881,118424.0,129529.0,11620.0
1679064964244881,118448.0,129529.0,11618.0
1679064964253881,118454.0,129535.0,11622.0
1679064964264881,118456.0,129554.0,11623.0
1679064964274881,118405.0,129538.0,11645.0
1679064964285881,118439.0,129541.0,11644.0
1679064964294881,118440.0,129561.0,11651.0
1679064964304881,118438.0,129541.0,11645.0
1679064964314881,118450.0,129535.0,11649.0
1679064964325881,118444.0,129546.0,11652.0
1679064964334881,118451.0,129519.0,11650.0
1679064964344881,118462.0,129547.0,11655.0
1679064964354881,118477.0,129531.0,11637.0
1679064964365881,118467.0,129524.0,11655.0
1679064964374881,118457.0,129517.0,11644.0
1679064964384881,118464.0,129519.0,11647.0
1679064964394881,118462.0,129547.0,11651.0
1679064964405881,118488.0,129589.0,11652.0
1679064964414881,118479.0,129578.0,11643.0
1679064964424881,118483.0,129610.0,11651.0
1679064964434881,118501.0,129614.0,11647.0
1679064964444881,118481.0,129616.0,11658.0
1679064964455881,118510.0,129625.0,11615.0
1679064964463881,118510.0,129645.0,11660.0
1679064964474881,118473.0,129652.0,11657.0
1679064964484881,118469.0,129652.0,11657.0
1679064964495880,118508.0,129637.0,11652.0
1679064964503880,118517.0,129637.0,11655.0
1679064964514880,118516.0,129656.0,11658.0
1679064964524880,118519.0,129617.0,11646.0
1679064964535880,118497.0,129644.0,11631.0
1679064964544880,118488.0,129653.0,11627.0
1679064964554880,118471.0,129686.0,11636.0
1679064964564880,118455.0,129659.0,11625.0
1679064964575880,118451.0,129699.0,11623.0
1679064964584880,118484.0,129749.0,11628.0
1679064964594880,118508.0,129793.0,11627.0
1679064964604880,118550.0,129800.0,11619.0
1679064964615881,118593.0,129854.0,11628.0
1679064964624881,118638.0,129896.0,11644.0
1679064964633881,118667.0,129955.0,11637.0
1679064964644881,118699.0,129967.0,11617.0
1679064964654881,118716.0,129982.0,11620.0
1679064964665881,118724.0,129978.0,11612.0
1679064964673881,118699.0,129970.0,11650.0
1679064964684881,118736.0,129963.0,11663.0
1679064964694881,118726.0,129974.0,11664.0
1679064964705881,118716.0,129928.0,11658.0
1679064964713880,118673.0,129914.0,11654.0
1679064964724880,118696.0,129895.0,11655.0
1679064964734880,118701.0,129906.0,11662.0
1679064964745880,118689.0,129910.0,11669.0
1679064964753880,118691.0,129893.0,11659.0
1679064964764880,118691.0,129910.0,11660.0
1679064964774880,118693.0,129913.0,11656.0
1679064964784880,118694.0,129927.0,11661.0
1679064964794881,118719.0,129968.0,11610.0
1679064964803881,118729.0,129956.0,11639.0
1679064964814881,118719.0,129967.0,11604.0
1679064964824881,118738.0,130009.0,11629.0
1679064964834881,118757.0,130017.0,11613.0
1679064964843881,118758.0,130022.0,11640.0
1679064964854881,118743.0,130066.0,11649.0
1679064964864881,118768.0,130066.0,11655.0
1679064964874881,118783.0,130065.0,11651.0
1679064964883881,118771.0,130053.0,11638.0
1679064964894881,118775.0,130065.0,11651.0
1679064964904881,118802.0,130056.0,11650.0
1679064964914881,118791.0,130026.0,11666.0
1679064964923881,118769.0,130040.0,11661.0
1679064964934881,118810.0,130044.0,11646.0
1679064964944881,118811.0,130068.0,11662.0
1679064964954881,118808.0,130074.0,11667.0
1679064964963881,118815.0,130093.0,11672.0
1679064964974881,118833.0,130082.0,11660.0
1679064964984881,118823.0,130085.0,11670.0
1679064964994881,118825.0,130040.0,11663.0
1679064965003881,118837.0,130107.0,11631.0
1679064965014881,118821.0,130075.0,11661.0
1679064965024881,118833.0,130086.0,11652.0
1679064965034881,118826.0,130067.0,11664.0
1679064965044881,118811.0,130082.0,11667.0
1679064965053881,118816.0,130085.0,11664.0
1679064965064881,118814.0,130037.0,11667.0
1679064965074881,118811.0,130052.0,11664.0
1679064965085881,118809.0,130046.0,11665.0
1679064965093881,118794.0,130038.0,11662.0
1679064965104880,118790.0,130011.0,11667.0
1679064965114880,118803.0,130079.0,11656.0
1679064965124880,118794.0,130039.0,11651.0
1679064965133880,118805.0,130036.0,11664.0
1679064965144880,118813.0,130052.0,11670.0
1679064965154881,118807.0,130016.0,11657.0
1679064965165881,118810.0,130027.0,11654.0
1679064965173881,118828.0,130059.0,11660.0
1679064965183881,118840.0,130078.0,11667.0
1679064965194881,118804.0,130076.0,11670.0
1679064965205881,118790.0,130092.0,11669.0
1679064965213880,118759.0,130171.0,11644.0
1679064965223880,118816.0,130135.0,11659.0
1679064965234880,118814.0,130157.0,11633.0
1679064965244880,118789.0,130158.0,11633.0
1679064965253880,118777.0,130174.0,11603.0
1679064965263880,118745.0,130182.0,11607.0
1679064965274880,118742.0,130226.0,11617.0
1679064965284880,118767.0,130248.0,11607.0
1679064965294880,118833.0,130286.0,11601.0
1679064965305880,118832.0,130320.0,11639.0
1679064965314880,118894.0,130374.0,11666.0
1679064965324880,118951.0,130370.0,11635.0
1679064965334881,118958.0,130396.0,11648.0
1679064965343881,118966.0,130397.0,11663.0
1679064965354881,119017.0,130423.0,11653.0
1679064965364881,119022.0,130358.0,11662.0
1679064965374881,119042.0,130373.0,11664.0
1679064965383881,119034.0,130382.0,11668.0
1679064965393881,118994.0,130406.0,11662.0
1679064965406881,118997.0,130360.0,11669.0
1679064965414881,118982.0,130358.0,11673.0
1679064965423881,118971.0,130353.0,11668.0
1679064965433881,118996.0,130350.0,11670.0
1679064965444881,118993.0,130341.0,11665.0
1679064965454881,119025.0,130318.0,11673.0
1679064965464881,118956.0,130269.0,11674.0
1679064965473881,118956.0,130250.0,11669.0
1679064965484881,118941.0,130269.0,11671.0
1679064965494881,118939.0,130263.0,11664.0
1679064965505880,118930.0,130270.0,11664.0
1679064965513881,118941.0,130274.0,11667.0
1679064965524881,118932.0,130272.0,11657.0
1679064965534881,118947.0,130297.0,11655.0
1679064965544881,118955.0,130302.0,11644.0
1679064965553881,118967.0,130286.0,11650.0
1679064965563881,118970.0,130309.0,11645.0
1679064965574881,118941.0,130363.0,11654.0
1679064965584881,118981.0,130359.0,11677.0
1679064965594881,119006.0,130361.0,11663.0
1679064965603881,119058.0,130293.0,11658.0
1679064965614881,119013.0,130337.0,11664.0
1679064965624881,119013.0,130375.0,11657.0
1679064965633881,119025.0,130397.0,11664.0
1679064965643881,119039.0,130395.0,11659.0
1679064965654881,119040.0,130400.0,11662.0
1679064965664881,119043.0,130386.0,11670.0
1679064965673881,119048.0,130410.0,11656.0
1679064965683881,119040.0,130401.0,11665.0
1679064965694881,119042.0,130377.0,11671.0
1679064965704881,119028.0,130362.0,11673.0
1679064965713881,119021.0,130303.0,11673.0
1679064965723881,119007.0,130294.0,11670.0
1679064965734881,119007.0,130315.0,11665.0
1679064965744881,118999.0,130262.0,11662.0
