time,ecg,hr,rr,marker
1679065834035416246,-0.085
1679065834043113470,-0.08700000000000001
1679065834050810694,-0.066
1679065834058507918,-0.052000000000000005
1679065834066205142,-0.058
1679065834073902366,-0.073
1679065834081599590,-0.068
1679065834089296814,-0.077
1679065834096994038,-0.133
1679065834104691262,-0.162
1679065834112388486,-0.131
1679065834120085710,-0.116
1679065834127782934,-0.139
1679065834135480158,-0.15
1679065834143177382,-0.177,,793
1679065834150874606,-0.219
1679065834158571830,-0.225
1679065834166269054,-0.21
1679065834173966278,-0.202
1679065834181663502,-0.185
1679065834189360726,-0.16
1679065834197057950,-0.135
1679065834204755174,-0.11
1679065834212452398,-0.1
1679065834220149622,-0.10200000000000001
1679065834227846846,-0.073
1679065834235544070,-0.031
1679065834243241294,-0.029
1679065834250938518,-0.056
1679065834258635742,-0.079
1679065834266332966,-0.062
1679065834274030190,-0.025
1679065834281727414,0.002
1679065834289424638,0.037
1679065834297121862,0.045
1679065834304819086,-0.002
1679065834312516310,-0.02
1679065834320213534,0.02
1679065834327910758,0.05
1679065834335607982,0.05
1679065834343305206,0.058
1679065834351002430,0.066
1679065834358699654,0.079
1679065834366396878,0.25
1679065834374094102,0.757
1679065834381791326,1.369
1679065834389488550,1.4060000000000001
1679065834397185774,0.47300000000000003
1679065834404882998,-0.463
1679065834412580222,-0.292
1679065834420277446,0.2
1679065834427974670,0.146
1679065834435671894,0.048
1679065834443369118,0.156
1679065834451066342,0.171
1679065834458763566,0.133
1679065834466460790,0.179
1679065834474158014,0.225
1679065834481855238,0.223
1679065834489552462,0.217
1679065834497249686,0.20800000000000002
1679065834504946910,0.194
1679065834512644134,0.194
1679065834520341358,0.202
1679065834528038582,0.198
1679065834535735806,0.181
1679065834543433030,0.166
1679065834551130254,0.171
1679065834558827478,0.181
1679065834566524702,0.198
1679065834574221926,0.21
1679065834581919150,0.20800000000000002
1679065834589616374,0.223
1679065834597313660,0.248,74
1679065834605010606,0.252
1679065834612707552,0.248
1679065834620404498,0.252
1679065834628101444,0.225
1679065834635798390,0.15
1679065834643495336,0.062
1679065834651192282,-0.002
1679065834658889228,-0.039
1679065834666586174,-0.081
1679065834674283120,-0.129
1679065834681980066,-0.152
1679065834689677012,-0.162
1679065834697373958,-0.194
1679065834705070904,-0.221
1679065834712767850,-0.233
1679065834720464796,-0.256
1679065834728161742,-0.279
1679065834735858688,-0.269
1679065834743555634,-0.258
1679065834751252580,-0.292
1679065834758949526,-0.319
1679065834766646472,-0.311
1679065834774343418,-0.292
1679065834782040364,-0.277
1679065834789737310,-0.258
1679065834797434256,-0.229
1679065834805131202,-0.196
1679065834812828148,-0.196
1679065834820525094,-0.20600000000000002
1679065834828222040,-0.181
1679065834835918986,-0.139
1679065834843615932,-0.133
1679065834851312878,-0.137
1679065834859009824,-0.114
1679065834866706770,-0.10200000000000001
1679065834874403716,-0.106
1679065834882100662,-0.08700000000000001
1679065834889797608,-0.058
1679065834897494554,-0.043000000000000003
1679065834905191500,-0.041
1679065834912888446,-0.033
1679065834920585392,-0.006
1679065834928282338,0.02
1679065834935979284,0.031
1679065834943676230,0.041
1679065834951373176,0.058
1679065834959070122,0.06
1679065834966767068,0.073,,822
1679065834974464014,0.10400000000000001
1679065834982160960,0.121
1679065834989857906,0.114
1679065834997554852,0.083
1679065835005251798,0.073
1679065835012948744,0.114
1679065835020645690,0.14400000000000002
1679065835028342636,0.129
1679065835036039582,0.11800000000000001
1679065835043736528,0.135
1679065835051433474,0.135
1679065835059130420,0.127
1679065835066827366,0.148
1679065835074524312,0.194
1679065835082221258,0.217
1679065835089918204,0.223
1679065835097615150,0.25
1679065835105312096,0.248
1679065835113009042,0.21
1679065835120705988,0.20600000000000002
1679065835128402934,0.231
1679065835136099880,0.229
1679065835143796826,0.217
1679065835151493772,0.185
1679065835159190732,0.129
1679065835166888026,0.17500000000000002
1679065835174585320,0.496
1679065835182282614,1.079
1679065835189979908,1.5210000000000001
1679065835197677202,1.129
1679065835205374496,-0.05
1679065835213071790,-0.647
1679065835220769084,-0.194
1679065835228466378,0.108
1679065835236163672,-0.048
1679065835243860966,-0.062
1679065835251558260,0.02
1679065835259255554,0.006
1679065835266952848,-0.002
1679065835274650142,0.025
1679065835282347436,0.045
1679065835290044730,0.058
1679065835297742024,0.06
1679065835305439318,0.08700000000000001
1679065835313136612,0.135
1679065835320833906,0.139
1679065835328531200,0.129
1679065835336228494,0.16
1679065835343925788,0.2
1679065835351623082,0.21
1679065835359320376,0.189
1679065835367017670,0.166
1679065835374714964,0.181
1679065835382412258,0.212
1679065835390109552,0.223
1679065835397806846,0.23500000000000001
1679065835405504140,0.258
1679065835413201434,0.256
1679065835420898728,0.23700000000000002
1679065835428596022,0.246
1679065835436293316,0.26
1679065835443990610,0.244
1679065835451687904,0.215
1679065835459385198,0.189
1679065835467082492,0.158
1679065835474779786,0.121
1679065835482477080,0.068
1679065835490174374,0.014
1679065835497871668,-0.022
1679065835505568962,-0.062
1679065835513266256,-0.10200000000000001
1679065835520963550,-0.116
1679065835528660844,-0.11800000000000001
1679065835536358138,-0.148
1679065835544055432,-0.17300000000000001
1679065835551752726,-0.169
1679065835559450020,-0.166
1679065835567147314,-0.17500000000000002
1679065835574844608,-0.17300000000000001
1679065835582541902,-0.156
1679065835590239196,-0.148
1679065835597936490,-0.152
1679065835605633784,-0.146
1679065835613331078,-0.123
1679065835621028372,-0.112
1679065835628725666,-0.11800000000000001
1679065835636422960,-0.112
1679065835644120254,-0.089
1679065835651817548,-0.11
1679065835659514842,-0.179
1679065835667212136,-0.2
1679065835674909430,-0.169
1679065835682606724,-0.16
1679065835690304018,-0.17300000000000001
1679065835698001312,-0.16
1679065835705698606,-0.135
1679065835713395900,-0.125
1679065835721093236,-0.114,74
1679065835728790112,-0.106
1679065835736486988,-0.14100000000000001
1679065835744183864,-0.179
1679065835751880740,-0.16
1679065835759577616,-0.127,,793
1679065835767274492,-0.108
1679065835774971368,-0.098
1679065835782668244,-0.10400000000000001
1679065835790365120,-0.093
1679065835798061996,-0.077
1679065835805758872,-0.106
1679065835813455748,-0.133
1679065835821152624,-0.112
1679065835828849500,-0.106
1679065835836546376,-0.137
1679065835844243252,-0.125
1679065835851940128,-0.056
1679065835859637004,-0.004
1679065835867333880,0.012
1679065835875030756,0.029
1679065835882727632,0.025
1679065835890424508,0.0
1679065835898121384,0.0
1679065835905818260,0.025
1679065835913515136,0.043000000000000003
1679065835921212012,0.05
1679065835928908888,0.052000000000000005
1679065835936605764,0.052000000000000005
1679065835944302640,0.085
1679065835951999516,0.311
1679065835959696392,0.864
1679065835967393268,1.44
1679065835975090144,1.302
1679065835982787020,0.215
1679065835990483896,-0.626
1679065835998180772,-0.311
1679065836005877648,0.114
1679065836013574524,-0.016
1679065836021271400,-0.075
1679065836028968276,0.048
1679065836036665152,0.062
1679065836044362028,0.041
1679065836052058904,0.066
1679065836059755780,0.085
1679065836067452656,0.091
1679065836075149532,0.096
1679065836082846408,0.108
1679065836090543284,0.14400000000000002
1679065836098240160,0.162
1679065836105937036,0.152
1679065836113633912,0.169
1679065836121330788,0.217
1679065836129027664,0.244
1679065836136724540,0.256
1679065836144421416,0.263
1679065836152118292,0.244
1679065836159815168,0.185
1679065836167512044,0.127
1679065836175208920,0.114
1679065836182905796,0.14100000000000001
1679065836190602672,0.156
1679065836198299548,0.14100000000000001
1679065836205996424,0.131
1679065836213693300,0.135
1679065836221390176,0.123
1679065836229087052,0.083
1679065836236783928,0.043000000000000003
1679065836244480804,0.006
1679065836252177680,-0.052000000000000005
1679065836259874556,-0.091
1679065836267571432,-0.066
1679065836275268308,-0.043000000000000003
1679065836282965220,-0.073
1679065836290662096,-0.089
1679065836298358972,-0.068
1679065836306055848,-0.066
1679065836313752724,-0.10200000000000001
1679065836321449600,-0.123
1679065836329146476,-0.133
1679065836336843352,-0.17500000000000002
1679065836344540228,-0.219
1679065836352237104,-0.23700000000000002
1679065836359933980,-0.233
1679065836367630856,-0.221
1679065836375327732,-0.223
1679065836383024608,-0.233
1679065836390721484,-0.221
1679065836398418360,-0.196
1679065836406115236,-0.196
1679065836413812112,-0.192
1679065836421508988,-0.164
1679065836429205864,-0.158
1679065836436902740,-0.16
1679065836444599616,-0.14100000000000001
1679065836452296492,-0.114
1679065836459993368,-0.096
1679065836467690244,-0.096
1679065836475387120,-0.125
1679065836483083996,-0.137
1679065836490780872,-0.121
1679065836498477748,-0.112
1679065836506174624,-0.108
1679065836513871500,-0.081
1679065836521568376,-0.075
1679065836529265252,-0.083
1679065836536962128,-0.058
1679065836544659004,-0.016
1679065836552355880,-0.006,,796
1679065836560052756,-0.012
1679065836567749632,-0.004
1679065836575446508,0.02
1679065836583143384,0.037
1679065836590840260,0.043000000000000003
1679065836598537136,0.06
1679065836606234012,0.081
1679065836613930888,0.079
1679065836621627764,0.066
1679065836629324640,0.083
1679065836637021516,0.116
1679065836644718392,0.146
1679065836652415268,0.171
1679065836660112144,0.177
1679065836667809020,0.129
1679065836675505896,0.039
1679065836683202772,-0.006
1679065836690899648,0.02
1679065836698596524,0.045
1679065836706293400,0.025
1679065836713990276,0.002
1679065836721687152,-0.012
1679065836729384028,-0.035
1679065836737080904,-0.018000000000000002
1679065836744777780,0.217
1679065836752474656,0.774
1679065836760171532,1.338
1679065836767868408,1.198
1679065836775565284,0.158
1679065836783262160,-0.603
1679065836790959036,-0.292
1679065836798655912,0.077
1679065836806352788,-0.037
1679065836814049664,-0.041
1679065836821746540,0.075
1679065836829443416,0.054
1679065836837140292,0.037
1679065836844837204,0.08700000000000001,74
1679065836852534498,0.10200000000000001
1679065836860231792,0.1
1679065836867929086,0.129
1679065836875626380,0.16
1679065836883323674,0.171
1679065836891020968,0.171
1679065836898718262,0.183
1679065836906415556,0.20600000000000002
1679065836914112850,0.189
1679065836921810144,0.146
1679065836929507438,0.154
1679065836937204732,0.179
1679065836944902026,0.152
1679065836952599320,0.127
1679065836960296614,0.135
1679065836967993908,0.11800000000000001
1679065836975691202,0.081
1679065836983388496,0.068
1679065836991085790,0.077
1679065836998783084,0.079
1679065837006480378,0.068
1679065837014177672,0.07
1679065837021874966,0.077
1679065837029572260,0.041
1679065837037269554,-0.012
1679065837044966848,-0.041
1679065837052664142,-0.048
1679065837060361436,-0.054
1679065837068058730,-0.068
1679065837075756024,-0.083
1679065837083453318,-0.079
1679065837091150612,-0.06
1679065837098847906,-0.058
1679065837106545200,-0.073
1679065837114242494,-0.085
1679065837121939788,-0.11
1679065837129637082,-0.14400000000000002
1679065837137334376,-0.146
1679065837145031670,-0.116
1679065837152728964,-0.112
1679065837160426258,-0.133
1679065837168123552,-0.177
1679065837175820846,-0.23500000000000001
1679065837183518140,-0.25
1679065837191215434,-0.233
1679065837198912728,-0.221
1679065837206610022,-0.229
1679065837214307316,-0.277
1679065837222004610,-0.304
1679065837229701904,-0.273
1679065837237399198,-0.248
1679065837245096492,-0.244
1679065837252793786,-0.24
1679065837260491080,-0.227
1679065837268188374,-0.20600000000000002
1679065837275885668,-0.189
1679065837283582962,-0.177
1679065837291280256,-0.146
1679065837298977550,-0.123
1679065837306674844,-0.127
1679065837314372138,-0.114
1679065837322069432,-0.079
1679065837329766726,-0.056
1679065837337464020,-0.05
1679065837345161314,-0.037
1679065837352858608,-0.022
1679065837360555902,-0.012,,806
1679065837368253196,0.004
1679065837375950490,0.031
1679065837383647784,0.054
1679065837391345078,0.062
1679065837399042372,0.054
1679065837406739706,0.06
1679065837414436930,0.091
1679065837422134154,0.112
1679065837429831378,0.11
1679065837437528602,0.112
1679065837445225826,0.123
1679065837452923050,0.137
1679065837460620274,0.148
1679065837468317498,0.16
1679065837476014722,0.181
1679065837483711946,0.133
1679065837491409170,0.016
1679065837499106394,-0.004
1679065837506803618,0.048
1679065837514500842,0.043000000000000003
1679065837522198066,0.027
1679065837529895290,0.054
1679065837537592514,0.056
1679065837545289738,0.054
1679065837552986962,0.246
1679065837560684186,0.776
1679065837568381410,1.381
1679065837576078634,1.371
1679065837583775858,0.398
1679065837591473082,-0.503
1679065837599170306,-0.29
1679065837606867530,0.171
1679065837614564754,0.093
1679065837622261978,0.027
1679065837629959202,0.137
1679065837637656426,0.133
1679065837645353650,0.10400000000000001
1679065837653050874,0.164
1679065837660748098,0.20600000000000002
1679065837668445322,0.185
1679065837676142546,0.137
1679065837683839770,0.116
1679065837691536994,0.139
1679065837699234218,0.15
1679065837706931442,0.131
1679065837714628666,0.131
1679065837722325890,0.148
1679065837730023114,0.139
1679065837737720338,0.154
1679065837745417562,0.192
1679065837753114786,0.179
1679065837760812010,0.152
1679065837768509234,0.158
1679065837776206458,0.17300000000000001
1679065837783903682,0.179
1679065837791600906,0.183
1679065837799298130,0.189
1679065837806995354,0.196
1679065837814692578,0.179
1679065837822389802,0.156
1679065837830087026,0.164
1679065837837784250,0.177
1679065837845481474,0.154
1679065837853178698,0.114
1679065837860875922,0.085
1679065837868573146,0.058
1679065837876270370,0.041
1679065837883967594,0.043000000000000003
1679065837891664818,0.056
1679065837899362042,0.056
1679065837907059266,0.029
1679065837914756490,0.0
1679065837922453714,-0.002
1679065837930150938,-0.012
1679065837937848162,-0.048
1679065837945545386,-0.079
1679065837953242610,-0.114
1679065837960939834,-0.148
1679065837968637120,-0.148,74
1679065837976334066,-0.125
1679065837984031012,-0.112
1679065837991727958,-0.123
1679065837999424904,-0.14100000000000001
1679065838007121850,-0.135
1679065838014818796,-0.114
1679065838022515742,-0.137
1679065838030212688,-0.194
1679065838037909634,-0.20400000000000001
1679065838045606580,-0.189
1679065838053303526,-0.202
1679065838061000472,-0.20800000000000002
1679065838068697418,-0.179
1679065838076394364,-0.152
1679065838084091310,-0.152
1679065838091788256,-0.171
1679065838099485202,-0.156
1679065838107182148,-0.11800000000000001
1679065838114879094,-0.10400000000000001
1679065838122576040,-0.098
1679065838130272986,-0.073
1679065838137969932,-0.06
1679065838145666878,-0.064
1679065838153363824,-0.045
1679065838161060770,-0.012,,805
1679065838168757716,0.004
1679065838176454662,-0.031
1679065838184151608,-0.089
1679065838191848554,-0.108
1679065838199545500,-0.123
1679065838207242446,-0.152
1679065838214939392,-0.139
1679065838222636338,-0.11
1679065838230333284,-0.114
1679065838238030230,-0.123
1679065838245727176,-0.098
1679065838253424122,-0.062
1679065838261121068,-0.033
1679065838268818014,-0.004
1679065838276514960,0.022
1679065838284211906,0.054
1679065838291908852,0.056
1679065838299605798,0.018000000000000002
1679065838307302744,0.022
1679065838314999690,0.066
1679065838322696636,0.062
1679065838330393582,0.045
1679065838338090528,0.079
1679065838345787474,0.10200000000000001
1679065838353484420,0.089
1679065838361181366,0.231
1679065838368878312,0.724
1679065838376575258,1.354
1679065838384272204,1.471
1679065838391969150,0.613
1679065838399666096,-0.388
1679065838407363042,-0.336
1679065838415059988,0.154
1679065838422756934,0.135
1679065838430453880,0.035
1679065838438150826,0.133
1679065838445847772,0.131
1679065838453544718,0.081
1679065838461241664,0.129
1679065838468938610,0.152
1679065838476635556,0.127
1679065838484332502,0.146
1679065838492029448,0.192
1679065838499726394,0.20800000000000002
1679065838507423340,0.20400000000000001
1679065838515120286,0.215
1679065838522817232,0.242
1679065838530514192,0.263,75
1679065838538211486,0.281
1679065838545908780,0.302
1679065838553606074,0.29
1679065838561303368,0.223
1679065838569000662,0.171
1679065838576697956,0.169
1679065838584395250,0.187
1679065838592092544,0.198
1679065838599789838,0.179
1679065838607487132,0.158
1679065838615184426,0.17300000000000001
1679065838622881720,0.181
1679065838630579014,0.164
1679065838638276308,0.162
1679065838645973602,0.154
1679065838653670896,0.11800000000000001
1679065838661368190,0.085
1679065838669065484,0.07
1679065838676762778,0.037
1679065838684460072,-0.056
1679065838692157366,-0.166
1679065838699854660,-0.187
1679065838707551954,-0.162
1679065838715249248,-0.189
1679065838722946542,-0.221
1679065838730643836,-0.221
1679065838738341130,-0.244
1679065838746038424,-0.265
1679065838753735718,-0.248
1679065838761433012,-0.225
1679065838769130306,-0.21
1679065838776827600,-0.20600000000000002
1679065838784524894,-0.212
1679065838792222188,-0.2
1679065838799919482,-0.17300000000000001
1679065838807616776,-0.156
1679065838815314070,-0.14100000000000001
1679065838823011364,-0.121
1679065838830708658,-0.123
1679065838838405952,-0.135
1679065838846103246,-0.11800000000000001
1679065838853800540,-0.089
1679065838861497834,-0.077
1679065838869195128,-0.077
1679065838876892422,-0.07
1679065838884589716,-0.054
1679065838892287010,-0.037
1679065838899984304,-0.033
1679065838907681598,-0.029
1679065838915378892,-0.004
1679065838923076186,0.006
1679065838930773480,-0.029
1679065838938470774,-0.07
1679065838946168068,-0.064,,779
1679065838953865362,-0.041
1679065838961562656,-0.039
1679065838969259950,-0.041
1679065838976957244,-0.031
1679065838984654538,-0.016
1679065838992351832,-0.004
1679065839000049126,0.02
1679065839007746420,0.043000000000000003
1679065839015443714,0.031
1679065839023141008,0.018000000000000002
1679065839030838302,0.05
1679065839038535596,0.07
1679065839046232890,0.058
1679065839053930184,0.052000000000000005
1679065839061627478,0.064
1679065839069324772,0.089
1679065839077022066,0.116
1679065839084719360,0.14400000000000002
1679065839092416696,0.183
1679065839100113711,0.181
1679065839107810726,0.133
1679065839115507741,0.114
1679065839123204756,0.148
1679065839130901771,0.171
1679065839138598786,0.166
1679065839146295801,0.162
1679065839153992816,0.158
1679065839161689831,0.129
1679065839169386846,0.215
1679065839177083861,0.645
1679065839184780876,1.239
1679065839192477891,1.298
1679065839200174906,0.338
1679065839207871921,-0.736
1679065839215568936,-0.682
1679065839223265951,-0.169
1679065839230962966,-0.166
1679065839238659981,-0.246
1679065839246356996,-0.14400000000000002
1679065839254054011,-0.129
1679065839261751026,-0.158
1679065839269448041,-0.096
1679065839277145056,-0.035
1679065839284842071,-0.045
1679065839292539086,-0.05
1679065839300236101,-0.01
1679065839307933116,0.018000000000000002
1679065839315630131,0.027
1679065839323327146,0.05
1679065839331024161,0.068
1679065839338721176,0.058
1679065839346418191,0.039
1679065839354115206,0.045
1679065839361812221,0.085
1679065839369509236,0.125
1679065839377206251,0.131
1679065839384903266,0.133
1679065839392600281,0.156
1679065839400297296,0.181
1679065839407994311,0.189
1679065839415691326,0.20400000000000001
1679065839423388341,0.202
1679065839431085356,0.148
1679065839438782371,0.098
1679065839446479386,0.098
1679065839454176401,0.093
1679065839461873416,0.062
1679065839469570431,0.031
1679065839477267446,-0.002
1679065839484964461,-0.039
1679065839492661476,-0.066
1679065839500358491,-0.091
1679065839508055506,-0.114
1679065839515752521,-0.14100000000000001
1679065839523449536,-0.183
1679065839531146551,-0.198
1679065839538843566,-0.17500000000000002
1679065839546540581,-0.156
1679065839554237596,-0.148
1679065839561934611,-0.14100000000000001
1679065839569631626,-0.137
1679065839577328641,-0.127
1679065839585025656,-0.108
1679065839592722671,-0.098
1679065839600419686,-0.083
1679065839608116701,-0.062
1679065839615813716,-0.064
1679065839623510731,-0.07
1679065839631207746,-0.05
1679065839638904761,-0.022
1679065839646601776,-0.022
1679065839654298852,-0.027,75
1679065839661996007,-0.016
1679065839669693162,-0.022
1679065839677390317,-0.05
1679065839685087472,-0.075
1679065839692784627,-0.11800000000000001
1679065839700481782,-0.17500000000000002
1679065839708178937,-0.196
1679065839715876092,-0.183
1679065839723573247,-0.162
1679065839731270402,-0.171
1679065839738967557,-0.219,,793
1679065839746664712,-0.229
1679065839754361867,-0.2
1679065839762059022,-0.198
1679065839769756177,-0.202
1679065839777453332,-0.166
1679065839785150487,-0.127
1679065839792847642,-0.121
1679065839800544797,-0.131
1679065839808241952,-0.112
1679065839815939107,-0.077
1679065839823636262,-0.058
1679065839831333417,-0.05
1679065839839030572,-0.037
1679065839846727727,-0.016
1679065839854424882,0.012
1679065839862122037,0.05
1679065839869819192,0.089
1679065839877516347,0.11
1679065839885213502,0.085
1679065839892910657,0.048
1679065839900607812,0.06
1679065839908304967,0.098
1679065839916002122,0.1
1679065839923699277,0.079
1679065839931396432,0.07
1679065839939093587,0.058
1679065839946790742,0.08700000000000001
1679065839954487897,0.375
1679065839962185052,0.983
1679065839969882207,1.471
1679065839977579362,1.133
1679065839985276517,0.025
1679065839992973672,-0.538
1679065840000670827,-0.1
1679065840008367982,0.187
1679065840016065137,0.045
1679065840023762292,0.068
1679065840031459447,0.152
1679065840039156602,0.1
1679065840046853757,0.096
1679065840054550912,0.164
1679065840062248067,0.177
1679065840069945222,0.158
1679065840077642377,0.169
1679065840085339532,0.194
1679065840093036687,0.20400000000000001
1679065840100733842,0.217
1679065840108430997,0.242
1679065840116128152,0.26
1679065840123825307,0.246
1679065840131522462,0.212
1679065840139219617,0.217
1679065840146916772,0.24
1679065840154613927,0.244
1679065840162311082,0.225
1679065840170008237,0.194
1679065840177705392,0.17500000000000002
1679065840185402547,0.17300000000000001
1679065840193099702,0.131
1679065840200796857,0.06
1679065840208494012,0.035
1679065840216191182,0.02
1679065840223888476,-0.004
1679065840231585770,0.002
1679065840239283064,0.01
1679065840246980358,-0.025
1679065840254677652,-0.066
1679065840262374946,-0.096
1679065840270072240,-0.127
1679065840277769534,-0.179
1679065840285466828,-0.227
1679065840293164122,-0.246
1679065840300861416,-0.267
1679065840308558710,-0.308
1679065840316256004,-0.321
1679065840323953298,-0.296
1679065840331650592,-0.281
1679065840339347886,-0.273
1679065840347045180,-0.254
1679065840354742474,-0.246
1679065840362439768,-0.242
1679065840370137062,-0.227
1679065840377834356,-0.20600000000000002
1679065840385531650,-0.179
1679065840393228944,-0.169
1679065840400926238,-0.183
1679065840408623532,-0.192
1679065840416320826,-0.20600000000000002
1679065840424018120,-0.225
1679065840431715414,-0.21
1679065840439412708,-0.185
1679065840447110002,-0.189
1679065840454807296,-0.194
1679065840462504590,-0.17500000000000002
1679065840470201884,-0.14400000000000002
1679065840477899178,-0.11800000000000001
1679065840485596472,-0.112
1679065840493293766,-0.114
1679065840500991060,-0.096
1679065840508688354,-0.066
1679065840516385648,-0.054
1679065840524082942,-0.037
1679065840531780236,-0.01
1679065840539477530,-0.006
1679065840547174824,-0.014,,810
1679065840554872118,0.004
1679065840562569412,0.043000000000000003
1679065840570266706,0.066
1679065840577964000,0.068
1679065840585661294,0.068
1679065840593358588,0.085
1679065840601055882,0.11
1679065840608753176,0.11800000000000001
1679065840616450470,0.123
1679065840624147764,0.137
1679065840631845058,0.135
1679065840639542352,0.139
1679065840647239646,0.179
1679065840654936940,0.20800000000000002
1679065840662634234,0.189
1679065840670331528,0.152
1679065840678028822,0.116
1679065840685726116,0.091
1679065840693423410,0.068
1679065840701120704,0.022
1679065840708817998,0.004
1679065840716515292,0.031
1679065840724212586,0.018000000000000002
1679065840731909880,-0.018000000000000002
1679065840739607174,0.056
1679065840747304468,0.39
1679065840755001762,0.978
1679065840762699056,1.427
1679065840770396350,1.035
1679065840778093684,-0.085,75
1679065840785790908,-0.578
1679065840793488132,-0.114
1679065840801185356,0.15
1679065840808882580,-0.004
1679065840816579804,-0.037
1679065840824277028,0.004
1679065840831974252,-0.014
1679065840839671476,0.006
1679065840847368700,0.043000000000000003
1679065840855065924,0.039
1679065840862763148,0.041
1679065840870460372,0.073
1679065840878157596,0.089
1679065840885854820,0.096
1679065840893552044,0.133
1679065840901249268,0.16
1679065840908946492,0.129
1679065840916643716,0.108
1679065840924340940,0.146
1679065840932038164,0.177
1679065840939735388,0.15
1679065840947432612,0.131
1679065840955129836,0.156
1679065840962827060,0.16
1679065840970524284,0.152
1679065840978221508,0.17300000000000001
1679065840985918732,0.198
1679065840993615956,0.185
1679065841001313180,0.156
1679065841009010404,0.154
1679065841016707628,0.17300000000000001
1679065841024404852,0.166
1679065841032102076,0.135
1679065841039799300,0.116
1679065841047496524,0.091
1679065841055193748,0.05
1679065841062890972,0.022
1679065841070588196,0.031
1679065841078285420,0.037
1679065841085982644,0.022
1679065841093679868,0.002
1679065841101377092,-0.018000000000000002
1679065841109074316,-0.031
1679065841116771540,-0.048
1679065841124468764,-0.077
1679065841132165988,-0.077
1679065841139863212,-0.062
1679065841147560436,-0.081
1679065841155257660,-0.114
1679065841162954884,-0.116
1679065841170652108,-0.10400000000000001
1679065841178349332,-0.112
1679065841186046556,-0.123
1679065841193743780,-0.148
1679065841201441004,-0.20600000000000002
1679065841209138228,-0.242
1679065841216835452,-0.223
1679065841224532676,-0.21
1679065841232229900,-0.223
1679065841239927124,-0.225
1679065841247624348,-0.2
1679065841255321572,-0.17500000000000002
1679065841263018796,-0.162
1679065841270716020,-0.156
1679065841278413244,-0.148
1679065841286110468,-0.127
1679065841293807692,-0.108
1679065841301504916,-0.098
1679065841309202140,-0.075
1679065841316899364,-0.045
1679065841324596588,-0.048
1679065841332293812,-0.052000000000000005
1679065841339991098,-0.018000000000000002
1679065841347688044,0.01
1679065841355384990,0.014,,810
1679065841363081936,0.016
1679065841370778882,0.029
1679065841378475828,0.027
1679065841386172774,-0.008
1679065841393869720,-0.066
1679065841401566666,-0.089
1679065841409263612,-0.08700000000000001
1679065841416960558,-0.106
1679065841424657504,-0.112
1679065841432354450,-0.075
1679065841440051396,-0.033
1679065841447748342,-0.008
1679065841455445288,0.027
1679065841463142234,0.058
1679065841470839180,0.033
1679065841478536126,-0.006
1679065841486233072,0.01
1679065841493930018,0.05
1679065841501626964,0.052000000000000005
1679065841509323910,0.045
1679065841517020856,0.058
1679065841524717802,0.07
1679065841532414748,0.091
1679065841540111694,0.277
1679065841547808640,0.789
1679065841555505586,1.379
1679065841563202532,1.352
1679065841570899478,0.386
1679065841578596424,-0.47100000000000003
1679065841586293370,-0.246
1679065841593990316,0.198
1679065841601687262,0.112
1679065841609384208,0.039
1679065841617081154,0.156
1679065841624778100,0.169
1679065841632475046,0.14100000000000001
1679065841640171992,0.171
1679065841647868938,0.148
1679065841655565884,0.10200000000000001
1679065841663262830,0.127
1679065841670959776,0.162
1679065841678656722,0.166
1679065841686353668,0.171
1679065841694050614,0.179
1679065841701747560,0.16
1679065841709444506,0.112
1679065841717141452,0.081
1679065841724838398,0.10200000000000001
1679065841732535344,0.127
1679065841740232290,0.123
1679065841747929236,0.106
1679065841755626182,0.1
1679065841763323128,0.114
1679065841771020074,0.133
1679065841778717020,0.127
1679065841786413966,0.106
1679065841794110912,0.10400000000000001
1679065841801807858,0.108
1679065841809504804,0.098
1679065841817201750,0.106
1679065841824898696,0.121
1679065841832595642,0.08700000000000001
1679065841840292588,0.037
1679065841847989534,0.029
1679065841855686480,0.033
1679065841863383426,0.014
1679065841871080372,0.006
1679065841878777318,0.002
1679065841886474264,-0.02
1679065841894171210,-0.054
1679065841901868170,-0.07,75
1679065841909565464,-0.077
1679065841917262758,-0.108
1679065841924960052,-0.181
1679065841932657346,-0.244
1679065841940354640,-0.233
1679065841948051934,-0.20800000000000002
1679065841955749228,-0.221
1679065841963446522,-0.223
1679065841971143816,-0.202
1679065841978841110,-0.196
1679065841986538404,-0.194
1679065841994235698,-0.183
1679065842001932992,-0.162
1679065842009630286,-0.15
1679065842017327580,-0.162
1679065842025024874,-0.164
1679065842032722168,-0.139
1679065842040419462,-0.123
1679065842048116756,-0.121
1679065842055814050,-0.116
1679065842063511344,-0.106
1679065842071208638,-0.10200000000000001
1679065842078905932,-0.098
1679065842086603226,-0.079
1679065842094300520,-0.052000000000000005
1679065842101997814,-0.037
1679065842109695108,-0.043000000000000003
1679065842117392402,-0.035
1679065842125089696,-0.004
1679065842132786990,0.002
1679065842140484284,-0.025
1679065842148181578,-0.025
1679065842155878872,-0.004
1679065842163576166,-0.012,,808
1679065842171273460,-0.018000000000000002
1679065842178970754,0.014
1679065842186668048,0.054
1679065842194365342,0.052000000000000005
1679065842202062636,0.035
1679065842209759930,0.012
1679065842217457224,-0.037
1679065842225154518,-0.068
1679065842232851812,-0.048
1679065842240549106,-0.033
1679065842248246400,-0.035
1679065842255943694,-0.012
1679065842263640988,0.027
1679065842271338282,0.068
1679065842279035576,0.11
1679065842286732870,0.096
1679065842294430164,0.039
1679065842302127458,0.039
1679065842309824752,0.073
1679065842317522046,0.085
1679065842325219340,0.10400000000000001
1679065842332916634,0.127
1679065842340613928,0.112
1679065842348311222,0.096
1679065842356008516,0.246
1679065842363705810,0.726
1679065842371403104,1.34
1679065842379100398,1.454
1679065842386797692,0.601
1679065842394494986,-0.41500000000000004
1679065842402192280,-0.371
1679065842409889574,0.131
1679065842417586868,0.131
1679065842425284162,0.029
1679065842432981456,0.11800000000000001
1679065842440678750,0.133
1679065842448376044,0.10400000000000001
1679065842456073338,0.15
1679065842463770674,0.185,75
1679065842471467968,0.181
1679065842479165262,0.192
1679065842486862556,0.20800000000000002
1679065842494559850,0.212
1679065842502257144,0.225
1679065842509954438,0.254
1679065842517651732,0.267
1679065842525349026,0.227
1679065842533046320,0.177
1679065842540743614,0.192
1679065842548440908,0.223
1679065842556138202,0.20600000000000002
1679065842563835496,0.179
1679065842571532790,0.183
1679065842579230084,0.192
1679065842586927378,0.185
1679065842594624672,0.185
1679065842602321966,0.196
1679065842610019260,0.189
1679065842617716554,0.171
1679065842625413848,0.148
1679065842633111142,0.116
1679065842640808436,0.08700000000000001
1679065842648505730,0.07
1679065842656203024,0.05
1679065842663900318,0.008
1679065842671597612,-0.025
1679065842679294906,-0.037
1679065842686992200,-0.029
1679065842694689494,-0.018000000000000002
1679065842702386788,-0.012
1679065842710084082,-0.052000000000000005
1679065842717781376,-0.137
1679065842725478670,-0.202
1679065842733175964,-0.221
1679065842740873258,-0.24
1679065842748570552,-0.248
1679065842756267846,-0.24
1679065842763965140,-0.242
1679065842771662434,-0.23700000000000002
1679065842779359728,-0.215
1679065842787057022,-0.192
1679065842794754316,-0.179
1679065842802451610,-0.185
1679065842810148904,-0.187
1679065842817846198,-0.169
1679065842825543492,-0.154
1679065842833240786,-0.148
1679065842840938080,-0.133
1679065842848635374,-0.127
1679065842856332668,-0.133
1679065842864029962,-0.11800000000000001
1679065842871727256,-0.108
1679065842879424550,-0.139
1679065842887121844,-0.166
1679065842894819138,-0.158
1679065842902516432,-0.14400000000000002
1679065842910213726,-0.125
1679065842917911020,-0.116
1679065842925608314,-0.1
1679065842933305608,-0.068
1679065842941002902,-0.066
1679065842948700196,-0.08700000000000001,,782
1679065842956397490,-0.06
1679065842964094784,-0.006
1679065842971792078,0.012
1679065842979489372,0.008
1679065842987186666,0.016
1679065842994883960,0.025
1679065843002581254,0.029
1679065843010278548,0.048
1679065843017975842,0.081
1679065843025673176,0.098
1679065843033370052,0.079
1679065843041066928,0.062
1679065843048763804,0.091
1679065843056460680,0.121
1679065843064157556,0.11800000000000001
1679065843071854432,0.127
1679065843079551308,0.156
1679065843087248184,0.17300000000000001
1679065843094945060,0.139
1679065843102641936,0.062
1679065843110338812,0.027
1679065843118035688,0.035
1679065843125732564,0.014
1679065843133429440,-0.014
1679065843141126316,0.012
1679065843148823192,0.045
1679065843156520068,0.033
1679065843164216944,0.085
1679065843171913820,0.436
1679065843179610696,1.066
1679065843187307572,1.442
1679065843195004448,0.889
1679065843202701324,-0.215
1679065843210398200,-0.532
1679065843218095076,-0.073
1679065843225791952,0.052000000000000005
1679065843233488828,-0.127
1679065843241185704,-0.098
1679065843248882580,-0.02
1679065843256579456,-0.041
1679065843264276332,-0.039
1679065843271973208,-0.016
1679065843279670084,-0.002
1679065843287366960,0.035
1679065843295063836,0.075
1679065843302760712,0.081
1679065843310457588,0.077
1679065843318154464,0.098
1679065843325851340,0.123
1679065843333548216,0.11800000000000001
1679065843341245092,0.108
1679065843348941968,0.121
1679065843356638844,0.139
1679065843364335720,0.14100000000000001
1679065843372032596,0.129
1679065843379729472,0.125
1679065843387426348,0.15
1679065843395123224,0.164
1679065843402820100,0.148
1679065843410516976,0.14400000000000002
1679065843418213852,0.164
1679065843425910728,0.166
1679065843433607604,0.16
1679065843441304480,0.171
1679065843449001356,0.164
1679065843456698232,0.129
1679065843464395108,0.098
1679065843472091984,0.083
1679065843479788860,0.064
1679065843487485736,0.027
1679065843495182612,-0.029
1679065843502879488,-0.068
1679065843510576364,-0.07
1679065843518273240,-0.089
1679065843525970116,-0.123
1679065843533666992,-0.116
1679065843541363868,-0.11
1679065843549060744,-0.131
1679065843556757620,-0.116
1679065843564454496,-0.068
1679065843572151372,-0.062
1679065843579848248,-0.08700000000000001
1679065843587545160,-0.091,75
1679065843595242454,-0.064
1679065843602939748,-0.041
1679065843610637042,-0.041
1679065843618334336,-0.058
1679065843626031630,-0.081
1679065843633728924,-0.127
1679065843641426218,-0.17300000000000001
1679065843649123512,-0.166
1679065843656820806,-0.146
1679065843664518100,-0.152
1679065843672215394,-0.156
1679065843679912688,-0.152
1679065843687609982,-0.14400000000000002
1679065843695307276,-0.129
1679065843703004570,-0.114
1679065843710701864,-0.085
1679065843718399158,-0.056
1679065843726096452,-0.079
1679065843733793746,-0.135
1679065843741491040,-0.148,,792
1679065843749188334,-0.125
1679065843756885628,-0.123
1679065843764582922,-0.123
1679065843772280216,-0.108
1679065843779977510,-0.083
1679065843787674804,-0.062
1679065843795372098,-0.054
1679065843803069392,-0.031
1679065843810766686,-0.002
1679065843818463980,-0.006
1679065843826161274,-0.008
1679065843833858568,0.016
1679065843841555862,0.041
1679065843849253156,0.062
1679065843856950450,0.077
1679065843864647744,0.066
1679065843872345038,0.045
1679065843880042332,0.02
1679065843887739626,0.012
1679065843895436920,0.037
1679065843903134214,0.058
1679065843910831508,0.039
1679065843918528802,0.037
1679065843926226096,0.075
1679065843933923390,0.083
1679065843941620684,0.10400000000000001
1679065843949317978,0.356
1679065843957015272,0.922
1679065843964712566,1.436
1679065843972409860,1.204
1679065843980107154,0.146
1679065843987804448,-0.507
1679065843995501742,-0.133
1679065844003199036,0.196
1679065844010896330,0.068
1679065844018593624,0.068
1679065844026290918,0.166
1679065844033988212,0.139
1679065844041685506,0.133
1679065844049382800,0.17500000000000002
1679065844057080094,0.164
1679065844064777388,0.16
1679065844072474682,0.202
1679065844080171976,0.225
1679065844087869270,0.227
1679065844095566564,0.231
1679065844103263858,0.223
1679065844110961152,0.196
1679065844118658446,0.177
1679065844126355740,0.177
1679065844134053034,0.164
1679065844141750328,0.14400000000000002
1679065844149447662,0.137
1679065844157144886,0.148
1679065844164842110,0.166
1679065844172539334,0.196
1679065844180236558,0.21
1679065844187933782,0.192
1679065844195631006,0.17500000000000002
1679065844203328230,0.148
1679065844211025454,0.091
1679065844218722678,0.064
1679065844226419902,0.064
1679065844234117126,-0.004
1679065844241814350,-0.114
1679065844249511574,-0.152
1679065844257208798,-0.139
1679065844264906022,-0.156
1679065844272603246,-0.181
1679065844280300470,-0.183
1679065844287997694,-0.2
1679065844295694918,-0.23500000000000001
1679065844303392142,-0.252
1679065844311089366,-0.252
1679065844318786590,-0.265
1679065844326483814,-0.277
1679065844334181038,-0.271
1679065844341878262,-0.254
1679065844349575486,-0.256
1679065844357272710,-0.271
1679065844364969934,-0.252
1679065844372667158,-0.225
1679065844380364382,-0.233
1679065844388061606,-0.233
1679065844395758830,-0.20400000000000001
1679065844403456054,-0.177
1679065844411153278,-0.17300000000000001
1679065844418850502,-0.181
1679065844426547726,-0.17300000000000001
1679065844434244950,-0.14400000000000002
1679065844441942174,-0.133
1679065844449639398,-0.133
1679065844457336622,-0.114
1679065844465033846,-0.091
1679065844472731070,-0.083
1679065844480428294,-0.079
1679065844488125518,-0.058
1679065844495822742,-0.027
1679065844503519966,-0.014
1679065844511217190,-0.025
1679065844518914414,-0.022
1679065844526611638,0.002
1679065844534308862,0.027,,796
1679065844542006086,0.043000000000000003
1679065844549703310,0.064
1679065844557400534,0.075
1679065844565097758,0.068
1679065844572794982,0.062
1679065844580492206,0.079
1679065844588189430,0.116
1679065844595886654,0.125
1679065844603583878,0.08700000000000001
1679065844611281102,0.085
1679065844618978326,0.116
1679065844626675550,0.11
1679065844634372774,0.106
1679065844642069998,0.133
1679065844649767222,0.15
1679065844657464446,0.158
1679065844665161670,0.185
1679065844672858894,0.223
1679065844680556118,0.229
1679065844688253342,0.185
1679065844695950566,0.158
1679065844703647790,0.181
1679065844711345076,0.198,75
1679065844719042022,0.189
1679065844726738968,0.2
1679065844734435914,0.20800000000000002
1679065844742132860,0.169
1679065844749829806,0.225
1679065844757526752,0.653
1679065844765223698,1.302
1679065844772920644,1.442
1679065844780617590,0.526
1679065844788314536,-0.5630000000000001
1679065844796011482,-0.513
1679065844803708428,0.012
1679065844811405374,-0.014
1679065844819102320,-0.116
1679065844826799266,0.008
1679065844834496212,0.01
1679065844842193158,-0.073
1679065844849890104,-0.052000000000000005
1679065844857587050,-0.016
1679065844865283996,-0.025
1679065844872980942,-0.031
1679065844880677888,-0.012
1679065844888374834,0.012
1679065844896071780,0.035
1679065844903768726,0.052000000000000005
1679065844911465672,0.081
1679065844919162618,0.10400000000000001
1679065844926859564,0.079
1679065844934556510,0.058
1679065844942253456,0.08700000000000001
1679065844949950402,0.11
1679065844957647348,0.114
1679065844965344294,0.133
1679065844973041240,0.16
1679065844980738186,0.162
1679065844988435132,0.16
1679065844996132078,0.179
1679065845003829024,0.192
1679065845011525970,0.17500000000000002
1679065845019222916,0.14400000000000002
1679065845026919862,0.131
1679065845034616808,0.14400000000000002
1679065845042313754,0.135
1679065845050010700,0.093
1679065845057707646,0.064
1679065845065404592,0.05
1679065845073101538,0.02
1679065845080798484,-0.012
1679065845088495430,-0.054
1679065845096192376,-0.112
1679065845103889322,-0.166
1679065845111586268,-0.202
1679065845119283214,-0.212
1679065845126980160,-0.196
1679065845134677106,-0.185
1679065845142374052,-0.194
1679065845150070998,-0.183
1679065845157767944,-0.154
1679065845165464890,-0.14400000000000002
1679065845173161836,-0.14100000000000001
1679065845180858782,-0.121
1679065845188555728,-0.10200000000000001
1679065845196252674,-0.106
1679065845203949620,-0.112
1679065845211646566,-0.098
1679065845219343512,-0.079
1679065845227040458,-0.075
1679065845234737404,-0.073
1679065845242434350,-0.081
1679065845250131296,-0.127
1679065845257828242,-0.179
1679065845265525188,-0.181
1679065845273222148,-0.154
1679065845280919442,-0.146
1679065845288616736,-0.152
1679065845296314030,-0.152
1679065845304011324,-0.139
1679065845311708618,-0.15
1679065845319405912,-0.194
1679065845327103206,-0.202
1679065845334800500,-0.187
1679065845342497794,-0.223
1679065845350195088,-0.246,,817
1679065845357892382,-0.21
1679065845365589676,-0.181
1679065845373286970,-0.177
1679065845380984264,-0.171
1679065845388681558,-0.158
1679065845396378852,-0.14400000000000002
1679065845404076146,-0.127
1679065845411773440,-0.10400000000000001
1679065845419470734,-0.07
1679065845427168028,-0.041
1679065845434865322,-0.041
1679065845442562616,-0.048
1679065845450259910,-0.014
1679065845457957204,0.041
1679065845465654498,0.07
1679065845473351792,0.093
1679065845481049086,0.114
1679065845488746380,0.091
1679065845496443674,0.05
1679065845504140968,0.056
1679065845511838262,0.1
1679065845519535556,0.125
1679065845527232850,0.112
1679065845534930144,0.114
1679065845542627438,0.135
1679065845550324732,0.166
1679065845558022026,0.386
1679065845565719320,0.9450000000000001
1679065845573416614,1.5090000000000001
1679065845581113908,1.327
1679065845588811202,0.23500000000000001
1679065845596508496,-0.528
1679065845604205790,-0.177
1679065845611903084,0.217
1679065845619600378,0.075
1679065845627297672,0.029
1679065845634994966,0.156
1679065845642692260,0.148
1679065845650389554,0.116
1679065845658086848,0.166
1679065845665784142,0.192
1679065845673481436,0.177
1679065845681178730,0.181
1679065845688876024,0.2
1679065845696573318,0.227
1679065845704270612,0.26
1679065845711967906,0.269
1679065845719665200,0.269
1679065845727362494,0.29
1679065845735059788,0.3
1679065845742757082,0.275
1679065845750454376,0.242
1679065845758151670,0.189
1679065845765848964,0.131
1679065845773546258,0.131
1679065845781243552,0.158
1679065845788940846,0.156
1679065845796638140,0.139
1679065845804335434,0.121
1679065845812032728,0.121
1679065845819730022,0.133
1679065845827427316,0.121
1679065845835124652,0.083,75
1679065845842821667,0.05
1679065845850518682,0.02
1679065845858215697,-0.008
1679065845865912712,-0.029
1679065845873609727,-0.035
1679065845881306742,-0.037
1679065845889003757,-0.045
1679065845896700772,-0.073
1679065845904397787,-0.112
1679065845912094802,-0.164
1679065845919791817,-0.229
1679065845927488832,-0.26
1679065845935185847,-0.244
1679065845942882862,-0.25
1679065845950579877,-0.273
1679065845958276892,-0.256
1679065845965973907,-0.231
1679065845973670922,-0.223
1679065845981367937,-0.215
1679065845989064952,-0.20600000000000002
1679065845996761967,-0.194
1679065846004458982,-0.181
1679065846012155997,-0.17300000000000001
1679065846019853012,-0.152
1679065846027550027,-0.135
1679065846035247042,-0.154
1679065846042944057,-0.166
1679065846050641072,-0.135
1679065846058338087,-0.108
1679065846066035102,-0.11800000000000001
1679065846073732117,-0.14400000000000002
1679065846081429132,-0.171
1679065846089126147,-0.181
1679065846096823162,-0.169
1679065846104520177,-0.15
1679065846112217192,-0.127
1679065846119914207,-0.10200000000000001
1679065846127611222,-0.10400000000000001
1679065846135308237,-0.106
1679065846143005252,-0.075
1679065846150702267,-0.039
1679065846158399282,-0.037,,811
1679065846166096297,-0.037
1679065846173793312,-0.012
1679065846181490327,0.008
1679065846189187342,0.01
1679065846196884357,0.02
1679065846204581372,0.05
1679065846212278387,0.066
1679065846219975402,0.064
1679065846227672417,0.068
1679065846235369432,0.091
1679065846243066447,0.11
1679065846250763462,0.108
1679065846258460477,0.093
1679065846266157492,0.058
1679065846273854507,0.02
1679065846281551522,0.027
1679065846289248537,0.066
1679065846296945552,0.098
1679065846304642567,0.075
1679065846312339582,0.012
1679065846320036597,-0.014
1679065846327733612,-0.018000000000000002
1679065846335430627,-0.037
1679065846343127642,-0.041
1679065846350824657,-0.016
1679065846358521672,-0.016
1679065846366218687,-0.02
1679065846373915702,0.185
1679065846381612717,0.745
1679065846389309732,1.344
1679065846397006808,1.2730000000000001
1679065846404703963,0.246
1679065846412401118,-0.609
1679065846420098273,-0.333
1679065846427795428,0.1
1679065846435492583,0.022
1679065846443189738,-0.004
1679065846450886893,0.077
1679065846458584048,0.006
1679065846466281203,-0.033
1679065846473978358,0.025
1679065846481675513,0.033
1679065846489372668,0.025
1679065846497069823,0.05
1679065846504766978,0.07
1679065846512464133,0.091
1679065846520161288,0.11
1679065846527858443,0.127
1679065846535555598,0.152
1679065846543252753,0.156
1679065846550949908,0.137
1679065846558647063,0.133
1679065846566344218,0.123
1679065846574041373,0.083
1679065846581738528,0.066
1679065846589435683,0.093
1679065846597132838,0.116
1679065846604829993,0.123
1679065846612527148,0.133
1679065846620224303,0.148
1679065846627921458,0.154
1679065846635618613,0.139
1679065846643315768,0.11800000000000001
1679065846651012923,0.11800000000000001
1679065846658710078,0.116
1679065846666407233,0.083
1679065846674104388,0.052000000000000005
1679065846681801543,0.033
1679065846689498698,-0.002
1679065846697195853,-0.039
1679065846704893008,-0.033
1679065846712590163,-0.022
1679065846720287318,-0.048
1679065846727984473,-0.091
1679065846735681628,-0.127
1679065846743378783,-0.129
1679065846751075938,-0.116
1679065846758773093,-0.121
1679065846766470248,-0.14100000000000001
1679065846774167403,-0.196
1679065846781864558,-0.26
1679065846789561713,-0.26
1679065846797258868,-0.221
1679065846804956023,-0.2
1679065846812653178,-0.198
1679065846820350333,-0.221
1679065846828047488,-0.233
1679065846835744643,-0.215
1679065846843441798,-0.202
1679065846851138953,-0.198
1679065846858836108,-0.185
1679065846866533263,-0.177
1679065846874230418,-0.17300000000000001
1679065846881927573,-0.14100000000000001
1679065846889624728,-0.108
1679065846897321883,-0.098
1679065846905019038,-0.096
1679065846912716193,-0.093
1679065846920413348,-0.08700000000000001
1679065846928110503,-0.075
1679065846935807658,-0.06
1679065846943504813,-0.018000000000000002,,779
1679065846951201968,0.014
1679065846958899138,0.002,75
1679065846966596014,-0.006
1679065846974292890,0.022
1679065846981989766,0.054
1679065846989686642,0.064
1679065846997383518,0.06
1679065847005080394,0.062
1679065847012777270,0.077
1679065847020474146,0.07
1679065847028171022,0.018000000000000002
1679065847035867898,-0.01
1679065847043564774,0.02
1679065847051261650,0.052000000000000005
1679065847058958526,0.058
1679065847066655402,0.058
1679065847074352278,0.066
1679065847082049154,0.048
1679065847089746030,0.0
1679065847097442906,-0.018000000000000002
1679065847105139782,0.002
1679065847112836658,0.02
1679065847120533534,0.025
1679065847128230410,0.045
1679065847135927286,0.056
1679065847143624162,0.054
1679065847151321038,0.23500000000000001
1679065847159017914,0.786
1679065847166714790,1.3980000000000001
1679065847174411666,1.333
1679065847182108542,0.317
1679065847189805418,-0.53
1679065847197502294,-0.26
1679065847205199170,0.169
1679065847212896046,0.068
1679065847220592922,0.031
1679065847228289798,0.162
1679065847235986674,0.14100000000000001
1679065847243683550,0.1
1679065847251380426,0.164
1679065847259077302,0.198
1679065847266774178,0.171
1679065847274471054,0.131
1679065847282167930,0.079
1679065847289864806,0.066
1679065847297561682,0.08700000000000001
1679065847305258558,0.081
1679065847312955434,0.056
1679065847320652310,0.048
1679065847328349186,0.031
1679065847336046062,0.004
1679065847343742938,0.01
1679065847351439814,0.035
1679065847359136690,0.054
1679065847366833566,0.077
1679065847374530442,0.089
1679065847382227318,0.08700000000000001
1679065847389924194,0.091
1679065847397621070,0.10400000000000001
1679065847405317946,0.112
1679065847413014822,0.10400000000000001
1679065847420711698,0.081
1679065847428408574,0.07
1679065847436105450,0.083
1679065847443802326,0.079
1679065847451499202,0.05
1679065847459196078,0.025
1679065847466892954,0.006
1679065847474589830,-0.018000000000000002
1679065847482286706,-0.037
1679065847489983582,-0.043000000000000003
1679065847497680458,-0.045
1679065847505377334,-0.066
1679065847513074210,-0.10400000000000001
1679065847520771122,-0.121,75
1679065847528468416,-0.106
1679065847536165710,-0.108
1679065847543863004,-0.108
1679065847551560298,-0.11
1679065847559257592,-0.17500000000000002
1679065847566954886,-0.265
1679065847574652180,-0.271
1679065847582349474,-0.221
1679065847590046768,-0.20600000000000002
1679065847597744062,-0.225
1679065847605441356,-0.227
1679065847613138650,-0.20800000000000002
1679065847620835944,-0.192
1679065847628533238,-0.189
1679065847636230532,-0.17300000000000001
1679065847643927826,-0.156
1679065847651625120,-0.169
1679065847659322414,-0.162
1679065847667019708,-0.114
1679065847674717002,-0.083
1679065847682414296,-0.083
1679065847690111590,-0.081
1679065847697808884,-0.064
1679065847705506178,-0.05
1679065847713203472,-0.039
1679065847720900766,-0.02
1679065847728598060,0.002
1679065847736295354,0.02
1679065847743992648,0.016,,804
1679065847751689942,0.008
1679065847759387236,0.027
1679065847767084530,0.062
1679065847774781824,0.052000000000000005
1679065847782479118,-0.002
1679065847790176412,-0.029
1679065847797873706,-0.035
1679065847805571000,-0.083
1679065847813268294,-0.108
1679065847820965588,-0.064
1679065847828662882,-0.016
1679065847836360176,-0.006
1679065847844057470,0.014
1679065847851754764,0.05
1679065847859452058,0.033
1679065847867149352,-0.004
1679065847874846646,0.01
1679065847882543940,0.043000000000000003
1679065847890241234,0.05
1679065847897938528,0.052000000000000005
1679065847905635822,0.073
1679065847913333116,0.081
1679065847921030410,0.089
1679065847928727704,0.275
1679065847936424998,0.8180000000000001
1679065847944122292,1.436
1679065847951819586,1.352
1679065847959516880,0.321
1679065847967214174,-0.503
1679065847974911468,-0.217
1679065847982608762,0.212
1679065847990306056,0.108
1679065847998003350,0.056
1679065848005700644,0.185
1679065848013397938,0.179
1679065848021095232,0.129
1679065848028792526,0.166
1679065848036489820,0.196
1679065848044187114,0.183
1679065848051884408,0.17300000000000001
1679065848059581702,0.162
1679065848067278996,0.162
1679065848074976290,0.187
1679065848082673624,0.21
1679065848090370500,0.223
1679065848098067376,0.244
1679065848105764252,0.25
1679065848113461128,0.242
1679065848121158004,0.254
1679065848128854880,0.271
1679065848136551756,0.225
1679065848144248632,0.162
1679065848151945508,0.171
1679065848159642384,0.192
1679065848167339260,0.164
1679065848175036136,0.152
1679065848182733012,0.169
1679065848190429888,0.166
1679065848198126764,0.146
1679065848205823640,0.127
1679065848213520516,0.11800000000000001
1679065848221217392,0.106
1679065848228914268,0.077
1679065848236611144,0.056
1679065848244308020,0.052000000000000005
1679065848252004896,0.027
1679065848259701772,-0.002
1679065848267398648,0.01
1679065848275095524,0.025
1679065848282792400,-0.022
1679065848290489276,-0.106
1679065848298186152,-0.169
1679065848305883028,-0.192
1679065848313579904,-0.196
1679065848321276780,-0.217
1679065848328973656,-0.225
1679065848336670532,-0.20800000000000002
1679065848344367408,-0.215
1679065848352064284,-0.221
1679065848359761160,-0.196
1679065848367458036,-0.17300000000000001
1679065848375154912,-0.177
1679065848382851788,-0.183
1679065848390548664,-0.171
1679065848398245540,-0.148
1679065848405942416,-0.14100000000000001
1679065848413639292,-0.14400000000000002
1679065848421336168,-0.121
1679065848429033044,-0.096
1679065848436729920,-0.108
1679065848444426796,-0.108
1679065848452123672,-0.073
1679065848459820548,-0.056
1679065848467517424,-0.06
1679065848475214300,-0.045
1679065848482911176,-0.027
1679065848490608052,-0.02
1679065848498304928,-0.016
1679065848506001804,0.002
1679065848513698680,0.029
1679065848521395556,0.037
1679065848529092432,0.027
1679065848536789308,0.012
1679065848544486184,-0.004
1679065848552183060,-0.018000000000000002,,806
1679065848559879936,-0.018000000000000002
1679065848567576812,-0.012
1679065848575273688,-0.002
1679065848582970564,0.004
1679065848590667440,0.008
1679065848598364316,0.037
1679065848606061192,0.08700000000000001
1679065848613758068,0.116
1679065848621454944,0.123
1679065848629151820,0.121
1679065848636848696,0.096
1679065848644545608,0.073,75
1679065848652242902,0.098
1679065848659940196,0.131
1679065848667637490,0.123
1679065848675334784,0.073
1679065848683032078,0.027
1679065848690729372,0.027
1679065848698426666,0.079
1679065848706123960,0.342
1679065848713821254,0.922
1679065848721518548,1.413
1679065848729215842,1.062
1679065848736913136,-0.048
1679065848744610430,-0.5710000000000001
1679065848752307724,-0.11800000000000001
1679065848760005018,0.154
1679065848767702312,-0.008
1679065848775399606,0.006
1679065848783096900,0.1
1679065848790794194,0.014
1679065848798491488,-0.058
1679065848806188782,-0.027
1679065848813886076,-0.01
1679065848821583370,-0.014
1679065848829280664,0.012
1679065848836977958,0.052000000000000005
1679065848844675252,0.077
1679065848852372546,0.085
1679065848860069840,0.08700000000000001
1679065848867767134,0.10200000000000001
1679065848875464428,0.131
1679065848883161722,0.158
1679065848890859016,0.171
1679065848898556310,0.189
1679065848906253604,0.215
1679065848913950898,0.233
1679065848921648192,0.246
1679065848929345486,0.271
1679065848937042780,0.292
1679065848944740074,0.26
1679065848952437368,0.21
1679065848960134662,0.202
1679065848967831956,0.212
1679065848975529250,0.20800000000000002
1679065848983226544,0.196
1679065848990923838,0.17500000000000002
1679065848998621132,0.14400000000000002
1679065849006318426,0.11
1679065849014015720,0.081
1679065849021713014,0.064
1679065849029410308,0.043000000000000003
1679065849037107602,0.006
1679065849044804896,-0.014
1679065849052502190,0.002
1679065849060199484,0.006
1679065849067896778,0.0
1679065849075594072,0.025
1679065849083291366,0.041
1679065849090988660,0.027
1679065849098685954,0.014
1679065849106383248,0.012
1679065849114080542,0.006
1679065849121777836,-0.031
1679065849129475130,-0.083
1679065849137172424,-0.081
1679065849144869718,-0.054
1679065849152567012,-0.07
1679065849160264306,-0.081
1679065849167961600,-0.058
1679065849175658894,-0.06
1679065849183356188,-0.089
1679065849191053482,-0.08700000000000001
1679065849198750776,-0.058
1679065849206448112,-0.041
1679065849214144988,-0.048
1679065849221841864,-0.062
1679065849229538740,-0.058
1679065849237235616,-0.029
1679065849244932492,-0.027
1679065849252629368,-0.039
1679065849260326244,-0.018000000000000002
1679065849268023120,-0.006
1679065849275719996,-0.022
1679065849283416872,-0.043000000000000003
1679065849291113748,-0.089
1679065849298810624,-0.17500000000000002
1679065849306507500,-0.242
1679065849314204376,-0.26
1679065849321901252,-0.25
1679065849329598128,-0.242
1679065849337295004,-0.244
1679065849344991880,-0.223
1679065849352688756,-0.192
1679065849360385632,-0.185
1679065849368082508,-0.187,,816
1679065849375779384,-0.16
1679065849383476260,-0.11
1679065849391173136,-0.081
1679065849398870012,-0.056
1679065849406566888,-0.018000000000000002
1679065849414263764,-0.018000000000000002
1679065849421960640,-0.064
1679065849429657516,-0.066
1679065849437354392,-0.01
1679065849445051268,0.006
1679065849452748144,-0.014
1679065849460445020,-0.004
1679065849468141896,0.018000000000000002
1679065849475838772,0.043000000000000003
1679065849483535648,0.246
1679065849491232524,0.793
1679065849498929400,1.377
1679065849506626276,1.2690000000000001
1679065849514323152,0.225
1679065849522020028,-0.611
1679065849529716904,-0.34400000000000003
1679065849537413780,0.075
1679065849545110656,-0.014
1679065849552807532,-0.073
1679065849560504408,0.027
1679065849568201284,0.041
1679065849575898160,0.033
1679065849583595036,0.07
1679065849591291912,0.098
1679065849598988788,0.10200000000000001
1679065849606685664,0.10400000000000001
1679065849614382540,0.112
1679065849622079416,0.14400000000000002
1679065849629776292,0.177
1679065849637473168,0.17500000000000002
1679065849645170044,0.179
1679065849652866920,0.223
1679065849660563796,0.258
1679065849668260672,0.263
1679065849675957548,0.28500000000000003
1679065849683654424,0.321
1679065849691351300,0.333
1679065849699048176,0.34800000000000003
1679065849706745052,0.371
1679065849714441928,0.384
1679065849722138804,0.402
1679065849729835680,0.396
1679065849737532556,0.381
1679065849745229432,0.396
1679065849752926308,0.381
1679065849760623184,0.323
1679065849768320096,0.254,75
1679065849776017181,0.17300000000000001
1679065849783714266,0.096
1679065849791411351,0.029
1679065849799108436,-0.052000000000000005
1679065849806805521,-0.11
1679065849814502606,-0.135
1679065849822199691,-0.162
1679065849829896776,-0.16
1679065849837593861,-0.133
1679065849845290946,-0.164
1679065849852988031,-0.212
1679065849860685116,-0.194
1679065849868382201,-0.171
1679065849876079286,-0.187
1679065849883776371,-0.169
1679065849891473456,-0.127
1679065849899170541,-0.108
1679065849906867626,-0.11
1679065849914564711,-0.127
1679065849922261796,-0.14400000000000002
1679065849929958881,-0.146
1679065849937655966,-0.169
1679065849945353051,-0.189
1679065849953050136,-0.187
1679065849960747221,-0.20400000000000001
1679065849968444306,-0.233
1679065849976141391,-0.221
1679065849983838476,-0.189
1679065849991535561,-0.179
1679065849999232646,-0.183
1679065850006929731,-0.189
1679065850014626816,-0.202
1679065850022323901,-0.23700000000000002
1679065850030020986,-0.252
1679065850037718071,-0.227
1679065850045415156,-0.219
1679065850053112241,-0.24
1679065850060809326,-0.231
1679065850068506411,-0.189
1679065850076203496,-0.166
1679065850083900581,-0.164
1679065850091597666,-0.154
1679065850099294751,-0.14100000000000001
1679065850106991836,-0.137
1679065850114688921,-0.116
1679065850122386006,-0.068
1679065850130083091,-0.018000000000000002
1679065850137780176,0.012
1679065850145477261,0.014,,777
1679065850153174346,-0.027
1679065850160871431,-0.045
1679065850168568516,0.0
1679065850176265601,0.033
1679065850183962686,0.029
1679065850191659771,0.031
1679065850199356856,0.043000000000000003
1679065850207053941,0.039
1679065850214751026,0.083
1679065850222448111,0.373
1679065850230145196,0.981
1679065850237842281,1.469
1679065850245539366,1.102
1679065850253236451,0.0
1679065850260933536,-0.538
1679065850268630621,-0.14400000000000002
1679065850276327706,0.114
1679065850284024791,0.002
1679065850291721876,0.025
1679065850299418961,0.075
1679065850307116046,0.002
1679065850314813131,-0.018000000000000002
1679065850322510216,0.02
1679065850330207338,0.025
1679065850337904423,0.027
1679065850345601508,0.058
1679065850353298593,0.081
1679065850360995678,0.091
1679065850368692763,0.108
1679065850376389848,0.116
1679065850384086933,0.098
1679065850391784018,0.062
1679065850399481103,0.06
1679065850407178188,0.091
1679065850414875273,0.11800000000000001
1679065850422572358,0.14400000000000002
1679065850430269443,0.162
1679065850437966528,0.17500000000000002
1679065850445663613,0.189
1679065850453360698,0.21
1679065850461057783,0.231
1679065850468754868,0.229
1679065850476451953,0.20600000000000002
1679065850484149038,0.198
1679065850491846123,0.21
1679065850499543208,0.215
1679065850507240293,0.171
1679065850514937378,0.089
1679065850522634463,0.039
1679065850530331548,0.02
1679065850538028633,-0.018000000000000002
1679065850545725718,-0.052000000000000005
1679065850553422803,-0.043000000000000003
1679065850561119888,-0.043000000000000003
1679065850568816973,-0.066
1679065850576514058,-0.056
1679065850584211143,-0.025
1679065850591908228,-0.008
1679065850599605313,0.0
1679065850607302398,0.014
1679065850614999483,0.031
1679065850622696568,0.039
1679065850630393653,0.041
1679065850638090738,0.058
1679065850645787823,0.085
1679065850653484908,0.085
1679065850661181993,0.073
1679065850668879078,0.089
1679065850676576163,0.121
1679065850684273248,0.123
1679065850691970333,0.098
1679065850699667418,0.07
1679065850707364503,0.05
1679065850715061588,0.022
1679065850722758673,-0.01
1679065850730455758,-0.016
1679065850738152843,-0.01
1679065850745849928,-0.029
1679065850753547013,-0.068
1679065850761244098,-0.10200000000000001
1679065850768941183,-0.11
1679065850776638268,-0.106
1679065850784335353,-0.108
1679065850792032438,-0.114
1679065850799729523,-0.112
1679065850807426608,-0.131
1679065850815123693,-0.189
1679065850822820778,-0.202
1679065850830517863,-0.164
1679065850838214948,-0.152
1679065850845912033,-0.14400000000000002
1679065850853609118,-0.091
1679065850861306203,-0.07
1679065850869003288,-0.116
1679065850876700373,-0.133
1679065850884397458,-0.106
1679065850892094582,-0.10200000000000001,75
1679065850899791458,-0.106
1679065850907488334,-0.07
1679065850915185210,-0.031
1679065850922882086,-0.05,,777
1679065850930578962,-0.043000000000000003
1679065850938275838,0.23700000000000002
1679065850945972714,0.864
1679065850953669590,1.369
1679065850961366466,0.985
1679065850969063342,-0.181
1679065850976760218,-0.757
1679065850984457094,-0.325
1679065850992153970,-0.039
1679065850999850846,-0.183
1679065851007547722,-0.194
1679065851015244598,-0.129
1679065851022941474,-0.16
1679065851030638350,-0.158
1679065851038335226,-0.116
1679065851046032102,-0.114
1679065851053728978,-0.1
1679065851061425854,-0.05
1679065851069122730,-0.033
1679065851076819606,-0.035
1679065851084516482,-0.004
1679065851092213358,0.041
1679065851099910234,0.064
1679065851107607110,0.073
1679065851115303986,0.08700000000000001
1679065851123000862,0.114
1679065851130697738,0.14100000000000001
1679065851138394614,0.156
1679065851146091490,0.181
1679065851153788366,0.219
1679065851161485242,0.233
1679065851169182118,0.227
1679065851176878994,0.242
1679065851184575870,0.267
1679065851192272746,0.265
1679065851199969622,0.246
1679065851207666498,0.23700000000000002
1679065851215363374,0.229
1679065851223060250,0.202
1679065851230757126,0.17300000000000001
1679065851238454002,0.17300000000000001
1679065851246150878,0.162
1679065851253847754,0.083
1679065851261544630,0.022
1679065851269241506,0.039
1679065851276938382,0.062
1679065851284635258,0.058
1679065851292332134,0.064
1679065851300029010,0.077
1679065851307725886,0.064
1679065851315422762,0.012
1679065851323119638,-0.05
1679065851330816514,-0.052000000000000005
1679065851338513390,-0.029
1679065851346210266,-0.045
1679065851353907142,-0.054
1679065851361604018,-0.027
1679065851369300894,-0.012
1679065851376997770,-0.014
1679065851384694646,-0.006
1679065851392391522,0.002
1679065851400088398,0.002
1679065851407785274,0.004
1679065851415482150,0.012
1679065851423179026,0.033
1679065851430875902,0.045
1679065851438572778,0.035
1679065851446269654,0.035
1679065851453966566,0.062,76
1679065851461663860,0.066
1679065851469361154,0.041
1679065851477058448,0.018000000000000002
1679065851484755742,-0.008
1679065851492453036,-0.062
1679065851500150330,-0.114
1679065851507847624,-0.114
1679065851515544918,-0.106
1679065851523242212,-0.16
1679065851530939506,-0.225
1679065851538636800,-0.225
1679065851546334094,-0.202
1679065851554031388,-0.217
1679065851561728682,-0.215
1679065851569425976,-0.166
1679065851577123270,-0.135
1679065851584820564,-0.131
1679065851592517858,-0.106
1679065851600215152,-0.089
1679065851607912446,-0.114
1679065851615609740,-0.135
1679065851623307034,-0.125
1679065851631004328,-0.11
1679065851638701622,-0.098
1679065851646398916,-0.081
1679065851654096210,-0.062
1679065851661793504,-0.056
1679065851669490798,0.008
1679065851677188092,0.375
1679065851684885386,1.033
1679065851692582680,1.4060000000000001,,775
1679065851700279974,0.801
1679065851707977268,-0.34
1679065851715674562,-0.609
1679065851723371856,-0.075
1679065851731069150,0.079
1679065851738766444,-0.077
1679065851746463738,-0.035
1679065851754161032,0.025
1679065851761858326,-0.016
1679065851769555620,-0.02
1679065851777252914,0.02
1679065851784950208,0.054
1679065851792647502,0.079
1679065851800344796,0.08700000000000001
1679065851808042090,0.079
1679065851815739384,0.045
1679065851823436678,-0.008
1679065851831133972,-0.016
1679065851838831266,0.025
1679065851846528560,0.045
1679065851854225854,0.045
1679065851861923148,0.064
1679065851869620442,0.106
1679065851877317736,0.133
1679065851885015030,0.148
1679065851892712324,0.162
1679065851900409618,0.17300000000000001
1679065851908106912,0.183
1679065851915804206,0.189
1679065851923501500,0.194
1679065851931198794,0.2
1679065851938896088,0.202
1679065851946593382,0.198
1679065851954290676,0.194
1679065851961987970,0.192
1679065851969685264,0.181
1679065851977382558,0.158
1679065851985079852,0.114
1679065851992777146,0.054
1679065852000474440,0.016
1679065852008171734,0.016
1679065852015869066,0.035
1679065852023566360,0.052000000000000005
1679065852031263654,0.054
1679065852038960948,0.037
1679065852046658242,0.041
1679065852054355536,0.073
1679065852062052830,0.064
1679065852069750124,0.002
1679065852077447418,-0.025
1679065852085144712,-0.014
1679065852092842006,-0.054
1679065852100539300,-0.089
1679065852108236594,-0.066
1679065852115933888,-0.048
1679065852123631182,-0.056
1679065852131328476,-0.06
1679065852139025770,-0.052000000000000005
1679065852146723064,-0.035
1679065852154420358,-0.029
1679065852162117652,-0.031
1679065852169814946,-0.02
1679065852177512240,-0.006
1679065852185209534,-0.01
1679065852192906828,-0.01
1679065852200604122,0.01
1679065852208301416,0.031
1679065852215998710,0.031
1679065852223696004,0.027
1679065852231393298,0.02
1679065852239090592,-0.012
1679065852246787886,-0.058
1679065852254485180,-0.083
1679065852262182474,-0.093
1679065852269879768,-0.125
1679065852277577062,-0.158
1679065852285274356,-0.156
1679065852292971650,-0.139
1679065852300668944,-0.14100000000000001
1679065852308366238,-0.146
1679065852316063532,-0.14100000000000001
1679065852323760826,-0.162
1679065852331458120,-0.20400000000000001
1679065852339155414,-0.2
1679065852346852708,-0.177
1679065852354550002,-0.215
1679065852362247296,-0.254
1679065852369944590,-0.24
1679065852377641884,-0.215
1679065852385339178,-0.2
1679065852393036472,-0.179
1679065852400733766,-0.171
1679065852408431060,-0.181
1679065852416128354,-0.11800000000000001
1679065852423825648,0.212
1679065852431522942,0.839
1679065852439220236,1.296
1679065852446917530,0.847
1679065852454614824,-0.294
1679065852462312118,-0.734
1679065852470009412,-0.24
1679065852477706706,-0.01,,779
1679065852485404000,-0.189
1679065852493101294,-0.179
1679065852500798588,-0.089
1679065852508495882,-0.112
1679065852516193176,-0.108
1679065852523890470,-0.054
1679065852531587764,-0.025
1679065852539285058,-0.01
1679065852546982352,0.002
1679065852554679646,0.014
1679065852562376940,0.045
1679065852570074234,0.077
1679065852577771572,0.098,76
1679065852585468448,0.121
1679065852593165324,0.14100000000000001
1679065852600862200,0.152
1679065852608559076,0.17500000000000002
1679065852616255952,0.212
1679065852623952828,0.246
1679065852631649704,0.256
1679065852639346580,0.248
1679065852647043456,0.256
1679065852654740332,0.281
1679065852662437208,0.265
1679065852670134084,0.20600000000000002
1679065852677830960,0.17500000000000002
1679065852685527836,0.171
1679065852693224712,0.16
1679065852700921588,0.16
1679065852708618464,0.166
1679065852716315340,0.154
1679065852724012216,0.116
1679065852731709092,0.062
1679065852739405968,0.029
1679065852747102844,0.039
1679065852754799720,0.043000000000000003
1679065852762496596,0.035
1679065852770193472,0.054
1679065852777890348,0.075
1679065852785587224,0.077
1679065852793284100,0.096
1679065852800980976,0.127
1679065852808677852,0.148
1679065852816374728,0.154
1679065852824071604,0.133
1679065852831768480,0.081
1679065852839465356,0.031
1679065852847162232,0.022
1679065852854859108,0.041
1679065852862555984,0.045
1679065852870252860,0.016
1679065852877949736,-0.02
1679065852885646612,-0.018000000000000002
1679065852893343488,0.012
1679065852901040364,0.018000000000000002
1679065852908737240,-0.004
1679065852916434116,-0.008
1679065852924130992,0.008
1679065852931827868,0.014
1679065852939524744,0.012
1679065852947221620,0.029
1679065852954918496,0.048
1679065852962615372,0.054
1679065852970312248,0.048
1679065852978009124,0.029
1679065852985706000,0.02
1679065852993402876,0.037
1679065853001099752,0.033
1679065853008796628,0.02
1679065853016493504,0.037
1679065853024190380,0.033
1679065853031887256,-0.002
1679065853039584132,-0.016
1679065853047281008,-0.037
1679065853054977884,-0.091
1679065853062674760,-0.125
1679065853070371636,-0.093
1679065853078068512,-0.048
1679065853085765388,-0.035
1679065853093462264,-0.029
1679065853101159140,-0.031
1679065853108856016,-0.077
1679065853116552892,-0.11
1679065853124249768,-0.08700000000000001
1679065853131946644,-0.06
1679065853139643556,-0.048
1679065853147340432,-0.054
1679065853155037308,-0.056
1679065853162734184,-0.041
1679065853170431060,0.0
1679065853178127936,0.269
1679065853185824812,0.887
1679065853193521688,1.383
1679065853201218564,0.987
1679065853208915440,-0.198,,737
1679065853216612316,-0.811
1679065853224309192,-0.398
1679065853232006068,-0.11800000000000001
1679065853239702944,-0.271
1679065853247399820,-0.24
1679065853255096696,-0.11
1679065853262793572,-0.133
1679065853270490448,-0.146
1679065853278187324,-0.093
1679065853285884200,-0.073
1679065853293581076,-0.079
1679065853301277952,-0.066
1679065853308974828,-0.016
1679065853316671704,0.033
1679065853324368580,0.037
1679065853332065456,0.0
1679065853339762332,-0.025
1679065853347459208,-0.008
1679065853355156084,0.022
1679065853362852960,0.039
1679065853370549836,0.06
1679065853378246712,0.075
1679065853385943588,0.08700000000000001
1679065853393640464,0.108
1679065853401337340,0.139
1679065853409034216,0.166
1679065853416731092,0.183
1679065853424427968,0.196
1679065853432124844,0.202
1679065853439821720,0.20600000000000002
1679065853447518596,0.20800000000000002
1679065853455215472,0.20600000000000002
1679065853462912348,0.177
1679065853470609224,0.10200000000000001
1679065853478306100,0.035
1679065853486002976,0.018000000000000002
1679065853493699852,0.01
1679065853501396728,0.002
1679065853509093604,0.006
1679065853516790480,0.006
1679065853524487356,0.01
1679065853532184232,0.035
1679065853539881108,0.06
1679065853547577984,0.075
1679065853555274860,0.093
1679065853562971736,0.106
1679065853570668612,0.112
1679065853578365488,0.131
1679065853586062364,0.156
1679065853593759240,0.169
1679065853601456116,0.158
1679065853609152992,0.131
1679065853616849868,0.114
1679065853624546744,0.116
1679065853632243620,0.11800000000000001
1679065853639940496,0.11800000000000001
1679065853647637372,0.129
1679065853655334248,0.125
1679065853663031124,0.108
1679065853670728000,0.123
1679065853678424876,0.14400000000000002
1679065853686121752,0.137
1679065853693818628,0.137
1679065853701515540,0.135,77
1679065853709212834,0.108
1679065853716910128,0.068
1679065853724607422,0.054
1679065853732304716,0.073
1679065853740002010,0.081
1679065853747699304,0.064
1679065853755396598,0.058
1679065853763093892,0.054
1679065853770791186,0.0
1679065853778488480,-0.079
1679065853786185774,-0.123
1679065853793883068,-0.137
1679065853801580362,-0.162
1679065853809277656,-0.187
1679065853816974950,-0.169
1679065853824672244,-0.123
1679065853832369538,-0.112
1679065853840066832,-0.154
1679065853847764126,-0.194
1679065853855461420,-0.202
1679065853863158714,-0.231
1679065853870856008,-0.248
1679065853878553302,-0.221
1679065853886250596,-0.20800000000000002
1679065853893947890,-0.215
1679065853901645184,-0.187
1679065853909342478,-0.16
1679065853917039772,-0.164
1679065853924737066,-0.043000000000000003,,716
1679065853932434360,0.43
1679065853940131654,1.075
1679065853947828948,1.2
1679065853955526242,0.327
1679065853963223536,-0.682
1679065853970920830,-0.607
1679065853978618124,-0.108
1679065853986315418,-0.133
1679065853994012712,-0.223
1679065854001710006,-0.096
1679065854009407300,-0.062
1679065854017104594,-0.10200000000000001
1679065854024801888,-0.07
1679065854032499182,-0.027
1679065854040196476,-0.018000000000000002
1679065854047893770,-0.008
1679065854055591064,0.02
1679065854063288358,0.045
1679065854070985652,0.058
1679065854078682946,0.066
1679065854086380240,0.085
1679065854094077534,0.121
1679065854101774828,0.15
1679065854109472122,0.162
1679065854117169416,0.179
1679065854124866710,0.20800000000000002
1679065854132564004,0.233
1679065854140261298,0.25
1679065854147958592,0.281
1679065854155655886,0.306
1679065854163353180,0.294
1679065854171050474,0.273
1679065854178747768,0.281
1679065854186445062,0.298
1679065854194142356,0.306
1679065854201839650,0.28800000000000003
1679065854209536944,0.229
1679065854217234238,0.185
1679065854224931532,0.181
1679065854232628826,0.16
1679065854240326120,0.139
1679065854248023414,0.137
1679065854255720708,0.11800000000000001
1679065854263418042,0.1
1679065854271115336,0.123
1679065854278812630,0.15
1679065854286509924,0.15
1679065854294207218,0.154
1679065854301904512,0.169
1679065854309601806,0.156
1679065854317299100,0.1
1679065854324996394,0.048
1679065854332693688,0.043000000000000003
1679065854340390982,0.031
1679065854348088276,-0.033
1679065854355785570,-0.079
1679065854363482864,-0.062
1679065854371180158,-0.048
1679065854378877452,-0.07
1679065854386574746,-0.07
1679065854394272040,-0.054
1679065854401969334,-0.054
1679065854409666628,-0.056
1679065854417363922,-0.037
1679065854425061216,-0.012
1679065854432758510,-0.016
1679065854440455804,-0.031
1679065854448153098,-0.045
1679065854455850392,-0.062
1679065854463547686,-0.073
1679065854471244980,-0.073
1679065854478942274,-0.091
1679065854486639568,-0.11800000000000001
1679065854494336862,-0.146
1679065854502034156,-0.177
1679065854509731450,-0.183
1679065854517428744,-0.164
1679065854525126038,-0.17300000000000001
1679065854532823332,-0.2
1679065854540520626,-0.192
1679065854548217920,-0.169
1679065854555915214,-0.169
1679065854563612508,-0.152
1679065854571309802,-0.096
1679065854579007096,-0.068
1679065854586704390,-0.068
1679065854594401684,-0.066
1679065854602098978,-0.085
1679065854609796272,-0.098
1679065854617493566,-0.08700000000000001
1679065854625190860,-0.081
1679065854632888154,-0.073
1679065854640585448,-0.054
1679065854648282742,-0.033
1679065854655980036,-0.029
1679065854663677330,0.041,,737
1679065854671374624,0.394
1679065854679071918,1.02
1679065854686769212,1.4040000000000001
1679065854694466506,0.8300000000000001
1679065854702163800,-0.35000000000000003
1679065854709861094,-0.6930000000000001
1679065854717558388,-0.177
1679065854725255682,-0.004
1679065854732952976,-0.15
1679065854740650270,-0.089
1679065854748347564,0.0
1679065854756044858,-0.02
1679065854763742152,-0.02
1679065854771439446,0.014
1679065854779136740,0.033
1679065854786834034,0.054
1679065854794531328,0.085
1679065854802228622,0.10200000000000001
1679065854809925916,0.106
1679065854817623210,0.127
1679065854825320544,0.154,78
1679065854833017838,0.169
1679065854840715132,0.189
1679065854848412426,0.181
1679065854856109720,0.085
1679065854863807014,0.018000000000000002
1679065854871504308,0.05
1679065854879201602,0.081
1679065854886898896,0.081
1679065854894596190,0.093
1679065854902293484,0.096
1679065854909990778,0.08700000000000001
1679065854917688072,0.08700000000000001
1679065854925385366,0.096
1679065854933082660,0.11
1679065854940779954,0.10200000000000001
1679065854948477248,0.058
1679065854956174542,0.037
1679065854963871836,0.037
1679065854971569130,0.02
1679065854979266424,-0.004
1679065854986963718,-0.01
1679065854994661012,-0.006
1679065855002358306,-0.014
1679065855010055600,-0.016
1679065855017752894,0.01
1679065855025450188,0.043000000000000003
1679065855033147482,0.05
1679065855040844776,0.039
1679065855048542070,0.048
1679065855056239364,0.05
1679065855063936658,0.027
1679065855071633952,0.012
1679065855079331246,0.014
1679065855087028540,0.018000000000000002
1679065855094725834,0.022
1679065855102423128,0.031
1679065855110120422,0.052000000000000005
1679065855117817716,0.073
1679065855125515010,0.066
1679065855133212304,0.048
1679065855140909598,0.058
1679065855148606892,0.077
1679065855156304186,0.077
1679065855164001480,0.079
1679065855171698774,0.089
1679065855179396068,0.08700000000000001
1679065855187093362,0.075
1679065855194790656,0.058
1679065855202487950,0.056
1679065855210185244,0.066
1679065855217882538,0.039
1679065855225579832,-0.014
1679065855233277126,-0.029
1679065855240974420,-0.041
1679065855248671714,-0.07
1679065855256369008,-0.07
1679065855264066302,-0.058
1679065855271763596,-0.079
1679065855279460890,-0.096
1679065855287158184,-0.075
1679065855294855478,-0.05
1679065855302552772,-0.054
1679065855310250066,-0.073
1679065855317947360,-0.07
1679065855325644654,-0.027
1679065855333341948,0.01
1679065855341039242,0.027
1679065855348736536,0.035
1679065855356433830,-0.031
1679065855364131124,-0.156
1679065855371828418,-0.187
1679065855379525712,-0.139
1679065855387223044,-0.123
1679065855394919920,-0.125
1679065855402616796,-0.114
1679065855410313672,-0.11800000000000001,,748
1679065855418010548,-0.125
1679065855425707424,0.018000000000000002
1679065855433404300,0.47500000000000003
1679065855441101176,1.049
1679065855448798052,1.035
1679065855456494928,0.035
1679065855464191804,-0.868
1679065855471888680,-0.624
1679065855479585556,-0.137
1679065855487282432,-0.217
1679065855494979308,-0.28500000000000003
1679065855502676184,-0.158
1679065855510373060,-0.15
1679065855518069936,-0.185
1679065855525766812,-0.11800000000000001
1679065855533463688,-0.054
1679065855541160564,-0.048
1679065855548857440,-0.045
1679065855556554316,-0.022
1679065855564251192,0.012
1679065855571948068,0.041
1679065855579644944,0.06
1679065855587341820,0.083
1679065855595038696,0.106
1679065855602735572,0.116
1679065855610432448,0.135
1679065855618129324,0.177
1679065855625826200,0.221
1679065855633523076,0.233
1679065855641219952,0.229
1679065855648916828,0.244
1679065855656613704,0.271
1679065855664310580,0.277
1679065855672007456,0.269
1679065855679704332,0.248
1679065855687401208,0.202
1679065855695098084,0.169
1679065855702794960,0.17500000000000002
1679065855710491836,0.183
1679065855718188712,0.17300000000000001
1679065855725885588,0.146
1679065855733582464,0.108
1679065855741279340,0.08700000000000001
1679065855748976216,0.089
1679065855756673092,0.089
1679065855764369968,0.093
1679065855772066844,0.116
1679065855779763720,0.129
1679065855787460596,0.123
1679065855795157472,0.133
1679065855802854348,0.14400000000000002
1679065855810551224,0.129
1679065855818248100,0.11
1679065855825944976,0.10400000000000001
1679065855833641852,0.10400000000000001
1679065855841338728,0.116
1679065855849035604,0.123
1679065855856732480,0.11800000000000001
1679065855864429356,0.08700000000000001
1679065855872126232,0.014
1679065855879823108,-0.029
1679065855887519984,-0.02
1679065855895216860,-0.004
1679065855902913736,0.0
1679065855910610612,-0.004
1679065855918307488,-0.01
1679065855926004364,-0.027
1679065855933701240,-0.064
1679065855941398116,-0.085
1679065855949095032,-0.064,78
1679065855956791908,-0.048
1679065855964488784,-0.079
1679065855972185660,-0.116
1679065855979882536,-0.123
1679065855987579412,-0.133
1679065855995276288,-0.158
1679065856002973164,-0.17300000000000001
1679065856010670040,-0.17500000000000002
1679065856018366916,-0.181
1679065856026063792,-0.223
1679065856033760668,-0.265
1679065856041457544,-0.25
1679065856049154420,-0.231
1679065856056851296,-0.254
1679065856064548172,-0.256
1679065856072245048,-0.223
1679065856079941924,-0.20400000000000001
1679065856087638800,-0.21
1679065856095335676,-0.20800000000000002
1679065856103032552,-0.177
1679065856110729428,-0.129
1679065856118426304,-0.098
1679065856126123180,-0.07
1679065856133820056,-0.043000000000000003
1679065856141516932,-0.062
1679065856149213808,-0.10200000000000001
1679065856156910684,-0.098
1679065856164607560,-0.064,,755
1679065856172304436,-0.056
1679065856180001312,-0.077
1679065856187698188,-0.081
1679065856195395064,-0.079
1679065856203091940,-0.01
1679065856210788816,0.354
1679065856218485692,1.008
1679065856226182568,1.4000000000000001
1679065856233879444,0.8140000000000001
1679065856241576320,-0.34600000000000003
1679065856249273196,-0.638
1679065856256970072,-0.10200000000000001
1679065856264666948,0.068
1679065856272363824,-0.064
1679065856280060700,0.008
1679065856287757576,0.07
1679065856295454452,0.016
1679065856303151328,0.039
1679065856310848204,0.112
1679065856318545080,0.131
1679065856326241956,0.129
1679065856333938832,0.14100000000000001
1679065856341635708,0.16
1679065856349332584,0.185
1679065856357029460,0.20600000000000002
1679065856364726336,0.20800000000000002
1679065856372423212,0.177
1679065856380120088,0.121
1679065856387816964,0.096
1679065856395513840,0.125
1679065856403210716,0.162
1679065856410907592,0.185
1679065856418604468,0.192
1679065856426301344,0.169
1679065856433998220,0.169
1679065856441695096,0.194
1679065856449391972,0.187
1679065856457088848,0.177
1679065856464785724,0.2
1679065856472482600,0.198
1679065856480179476,0.171
1679065856487876352,0.17300000000000001
1679065856495573228,0.185
1679065856503270104,0.164
1679065856510967016,0.135,78
1679065856518664101,0.10400000000000001
1679065856526361186,0.079
1679065856534058271,0.077
1679065856541755356,0.077
1679065856549452441,0.085
1679065856557149526,0.081
1679065856564846611,0.014
1679065856572543696,-0.052000000000000005
1679065856580240781,-0.035
1679065856587937866,-0.004
1679065856595634951,-0.012
1679065856603332036,-0.018000000000000002
1679065856611029121,-0.006
1679065856618726206,0.002
1679065856626423291,0.006
1679065856634120376,0.02
1679065856641817461,0.041
1679065856649514546,0.054
1679065856657211631,0.035
1679065856664908716,0.004
1679065856672605801,-0.02
1679065856680302886,-0.029
1679065856687999971,-0.022
1679065856695697056,-0.01
1679065856703394141,-0.008
1679065856711091226,-0.012
1679065856718788311,-0.031
1679065856726485396,-0.058
1679065856734182481,-0.062
1679065856741879566,-0.089
1679065856749576651,-0.139
1679065856757273736,-0.148
1679065856764970821,-0.129
1679065856772667906,-0.131
1679065856780364991,-0.129
1679065856788062076,-0.108
1679065856795759161,-0.108
1679065856803456246,-0.125
1679065856811153331,-0.114
1679065856818850416,-0.083
1679065856826547501,-0.066
1679065856834244586,-0.068
1679065856841941671,-0.075
1679065856849638756,-0.066
1679065856857335841,-0.054
1679065856865032926,-0.048
1679065856872730011,-0.06
1679065856880427096,-0.093
1679065856888124181,-0.106
1679065856895821266,-0.098
1679065856903518351,-0.11800000000000001
1679065856911215436,-0.166
1679065856918912521,-0.196,,750
1679065856926609606,-0.194
1679065856934306691,-0.192
1679065856942003776,-0.183
1679065856949700861,-0.162
1679065856957397946,-0.164
1679065856965095031,-0.114
1679065856972792116,0.183
1679065856980489201,0.776
1679065856988186286,1.2690000000000001
1679065856995883371,0.9430000000000001
1679065857003580456,-0.158
1679065857011277541,-0.713
1679065857018974626,-0.281
1679065857026671711,0.01
1679065857034368796,-0.11
1679065857042065881,-0.091
1679065857049762966,-0.008
1679065857057460051,-0.02
1679065857065157136,-0.006
1679065857072854258,0.031
1679065857080551204,0.031
1679065857088248150,0.043000000000000003
1679065857095945096,0.085
1679065857103642042,0.112
1679065857111338988,0.114
1679065857119035934,0.121
1679065857126732880,0.135
1679065857134429826,0.125
1679065857142126772,0.096
1679065857149823718,0.10200000000000001
1679065857157520664,0.11
1679065857165217610,0.062
1679065857172914556,0.043000000000000003
1679065857180611502,0.089
1679065857188308448,0.127
1679065857196005394,0.137
1679065857203702340,0.146
1679065857211399286,0.152
1679065857219096232,0.15
1679065857226793178,0.14400000000000002
1679065857234490124,0.14400000000000002
1679065857242187070,0.16
1679065857249884016,0.169
1679065857257580962,0.137
1679065857265277908,0.10400000000000001
1679065857272974854,0.1
1679065857280671800,0.093
1679065857288368746,0.077
1679065857296065692,0.07
1679065857303762638,0.066
1679065857311459584,0.039
1679065857319156530,0.014
1679065857326853476,0.018000000000000002
1679065857334550422,0.039
1679065857342247368,0.043000000000000003
1679065857349944314,0.035
1679065857357641260,0.045
1679065857365338206,0.077
1679065857373035152,0.079
1679065857380732098,0.037
1679065857388429044,0.0
1679065857396125990,-0.004
1679065857403822936,-0.014
1679065857411519882,-0.037
1679065857419216828,-0.037
1679065857426913774,-0.022
1679065857434610720,-0.027
1679065857442307666,-0.039
1679065857450004612,-0.025
1679065857457701558,-0.006
1679065857465398504,-0.018000000000000002
1679065857473095450,-0.045
1679065857480792396,-0.056
1679065857488489342,-0.081
1679065857496186288,-0.133
1679065857503883234,-0.152
1679065857511580180,-0.129
1679065857519277126,-0.114
1679065857526974072,-0.131
1679065857534671018,-0.146
1679065857542367964,-0.131
1679065857550064910,-0.10400000000000001
1679065857557761856,-0.096
1679065857565458802,-0.089
1679065857573155748,-0.075
1679065857580852694,-0.066
1679065857588549640,-0.073
1679065857596246586,-0.062
1679065857603943532,-0.043000000000000003
1679065857611640478,-0.052000000000000005
1679065857619337424,-0.058
1679065857627034370,-0.033
1679065857634731328,0.027,78
1679065857642428343,0.093
1679065857650125358,0.079
1679065857657822373,0.002,,741
1679065857665519388,-0.029
1679065857673216403,-0.054
1679065857680913418,-0.11800000000000001
1679065857688610433,-0.125
1679065857696307448,-0.079
1679065857704004463,-0.081
1679065857711701478,-0.11
1679065857719398493,-0.033
1679065857727095508,0.331
1679065857734792523,0.962
1679065857742489538,1.369
1679065857750186553,0.849
1679065857757883568,-0.28300000000000003
1679065857765580583,-0.636
1679065857773277598,-0.129
1679065857780974613,0.068
1679065857788671628,-0.073
1679065857796368643,-0.022
1679065857804065658,0.066
1679065857811762673,0.031
1679065857819459688,0.022
1679065857827156703,0.077
1679065857834853718,0.11
1679065857842550733,0.135
1679065857850247748,0.162
1679065857857944763,0.16
1679065857865641778,0.16
1679065857873338793,0.181
1679065857881035808,0.154
1679065857888732823,0.08700000000000001
1679065857896429838,0.054
1679065857904126853,0.033
1679065857911823868,0.025
1679065857919520883,0.056
1679065857927217898,0.083
1679065857934914913,0.108
1679065857942611928,0.127
1679065857950308943,0.121
1679065857958005958,0.121
1679065857965702973,0.14400000000000002
1679065857973399988,0.154
1679065857981097003,0.148
1679065857988794018,0.156
1679065857996491033,0.16
1679065858004188048,0.148
1679065858011885063,0.14100000000000001
1679065858019582078,0.137
1679065858027279093,0.11800000000000001
1679065858034976108,0.08700000000000001
1679065858042673123,0.05
1679065858050370138,0.01
1679065858058067153,-0.016
1679065858065764168,-0.025
1679065858073461183,-0.02
1679065858081158198,-0.01
1679065858088855213,-0.006
1679065858096552228,-0.002
1679065858104249243,0.012
1679065858111946258,0.039
1679065858119643273,0.058
1679065858127340288,0.06
1679065858135037303,0.05
1679065858142734318,0.035
1679065858150431333,0.004
1679065858158128348,-0.016
1679065858165825363,0.008
1679065858173522378,0.031
1679065858181219393,0.012
1679065858188916408,0.0
1679065858196613486,0.022
1679065858204310362,0.041
1679065858212007238,0.022
1679065858219704114,-0.02
1679065858227400990,-0.052000000000000005
1679065858235097866,-0.081
1679065858242794742,-0.137
1679065858250491618,-0.192
1679065858258188494,-0.202
1679065858265885370,-0.194
1679065858273582246,-0.21
1679065858281279122,-0.219
1679065858288975998,-0.196
1679065858296672874,-0.171
1679065858304369750,-0.164
1679065858312066626,-0.166
1679065858319763502,-0.162
1679065858327460378,-0.146
1679065858335157254,-0.135
1679065858342854130,-0.125
1679065858350551006,-0.1
1679065858358247882,-0.085
1679065858365944758,-0.096
1679065858373641634,-0.1
1679065858381338510,-0.098
1679065858389035386,-0.14400000000000002
1679065858396732262,-0.189
1679065858404429138,-0.189
1679065858412126014,-0.21
1679065858419822890,-0.246,,759
1679065858427519766,-0.231
1679065858435216642,-0.202
1679065858442913518,-0.183
1679065858450610394,-0.16
1679065858458307270,-0.154
1679065858466004146,-0.16
1679065858473701022,-0.093
1679065858481397898,0.21
1679065858489094774,0.799
1679065858496791650,1.304
1679065858504488526,0.983
1679065858512185402,-0.139
1679065858519882278,-0.705
1679065858527579154,-0.248
1679065858535276030,0.075
1679065858542972906,-0.062
1679065858550669782,-0.07
1679065858558366658,0.035
1679065858566063534,0.039
1679065858573760410,0.037
1679065858581457286,0.077
1679065858589154162,0.10200000000000001
1679065858596851038,0.112
1679065858604547914,0.121
1679065858612244790,0.137
1679065858619941666,0.164
1679065858627638542,0.198
1679065858635335418,0.202
1679065858643032294,0.17300000000000001
1679065858650729170,0.171
1679065858658426046,0.20600000000000002
1679065858666122922,0.227
1679065858673819798,0.24
1679065858681516674,0.269
1679065858689213550,0.29
1679065858696910426,0.28800000000000003
1679065858704607302,0.296
1679065858712304178,0.315
1679065858720001054,0.323
1679065858727697930,0.319
1679065858735394806,0.3
1679065858743091682,0.292
1679065858750788558,0.308
1679065858758485470,0.313,78
1679065858766182346,0.3
1679065858773879222,0.28300000000000003
1679065858781576098,0.225
1679065858789272974,0.133
1679065858796969850,0.085
1679065858804666726,0.083
1679065858812363602,0.052000000000000005
1679065858820060478,0.002
1679065858827757354,-0.01
1679065858835454230,0.004
1679065858843151106,0.008
1679065858850847982,0.012
1679065858858544858,0.033
1679065858866241734,0.058
1679065858873938610,0.068
1679065858881635486,0.031
1679065858889332362,-0.05
1679065858897029238,-0.10400000000000001
1679065858904726114,-0.10400000000000001
1679065858912422990,-0.108
1679065858920119866,-0.116
1679065858927816742,-0.1
1679065858935513618,-0.091
1679065858943210494,-0.093
1679065858950907370,-0.06
1679065858958604246,-0.033
1679065858966301122,-0.073
1679065858973997998,-0.121
1679065858981694874,-0.114
1679065858989391750,-0.116
1679065858997088626,-0.162
1679065859004785502,-0.187
1679065859012482378,-0.177
1679065859020179254,-0.17500000000000002
1679065859027876130,-0.177
1679065859035573006,-0.171
1679065859043269882,-0.154
1679065859050966758,-0.14400000000000002
1679065859058663634,-0.16
1679065859066360510,-0.158
1679065859074057386,-0.127
1679065859081754262,-0.121
1679065859089451138,-0.127
1679065859097148014,-0.106
1679065859104844890,-0.085
1679065859112541766,-0.093
1679065859120238642,-0.096
1679065859127935518,-0.091
1679065859135632394,-0.112
1679065859143329270,-0.116
1679065859151026146,-0.089
1679065859158723022,-0.054
1679065859166419898,-0.014
1679065859174116774,-0.02
1679065859181813650,-0.062
1679065859189510526,-0.062
1679065859197207402,-0.035,,781
1679065859204904278,-0.033
1679065859212601154,-0.031
1679065859220298030,0.0
1679065859227994906,0.025
1679065859235691782,0.018000000000000002
1679065859243388658,0.15
1679065859251085534,0.638
1679065859258782410,1.283
1679065859266479286,1.4040000000000001
1679065859274176162,0.526
1679065859281873038,-0.482
1679065859289569914,-0.417
1679065859297266790,0.073
1679065859304963666,0.073
1679065859312660542,0.0
1679065859320357456,0.123
1679065859328054471,0.154
1679065859335751486,0.10400000000000001
1679065859343448501,0.139
1679065859351145516,0.187
1679065859358842531,0.177
1679065859366539546,0.185
1679065859374236561,0.194
1679065859381933576,0.127
1679065859389630591,0.035
1679065859397327606,-0.027
1679065859405024621,-0.06
1679065859412721636,-0.048
1679065859420418651,-0.029
1679065859428115666,-0.033
1679065859435812681,-0.012
1679065859443509696,0.029
1679065859451206711,0.054
1679065859458903726,0.083
1679065859466600741,0.11
1679065859474297756,0.11
1679065859481994771,0.112
1679065859489691786,0.14100000000000001
1679065859497388801,0.16
1679065859505085816,0.156
1679065859512782831,0.152
1679065859520479846,0.158
1679065859528176861,0.164
1679065859535873876,0.146
1679065859543570891,0.108
1679065859551267906,0.093
1679065859558964921,0.08700000000000001
1679065859566661936,0.064
1679065859574358951,0.052000000000000005
1679065859582055966,0.058
1679065859589752981,0.048
1679065859597449996,0.018000000000000002
1679065859605147011,0.018000000000000002
1679065859612844026,0.033
1679065859620541041,0.016
1679065859628238056,-0.008
1679065859635935071,0.002
1679065859643632086,0.033
1679065859651329101,0.045
1679065859659026116,0.039
1679065859666723131,0.033
1679065859674420146,0.041
1679065859682117161,0.064
1679065859689814176,0.081
1679065859697511191,0.079
1679065859705208206,0.081
1679065859712905221,0.096
1679065859720602236,0.10400000000000001
1679065859728299251,0.10200000000000001
1679065859735996266,0.116
1679065859743693281,0.116
1679065859751390296,0.075
1679065859759087311,0.041
1679065859766784326,0.033
1679065859774481341,0.002
1679065859782178356,-0.025
1679065859789875371,-0.027
1679065859797572386,-0.035
1679065859805269401,-0.045
1679065859812966416,-0.039
1679065859820663431,-0.025
1679065859828360446,-0.014
1679065859836057461,-0.02
1679065859843754476,-0.037
1679065859851451491,-0.031
1679065859859148506,-0.006
1679065859866845521,-0.014
1679065859874542536,-0.039
1679065859882239612,-0.041,78
1679065859889936558,-0.037
1679065859897633504,-0.058
1679065859905330450,-0.1
1679065859913027396,-0.106
1679065859920724342,-0.07
1679065859928421288,-0.045
1679065859936118234,-0.058
1679065859943815180,-0.089
1679065859951512126,-0.129
1679065859959209072,-0.169,,764
1679065859966906018,-0.169
1679065859974602964,-0.15
1679065859982299910,-0.158
1679065859989996856,-0.171
1679065859997693802,-0.154
1679065860005390748,-0.066
1679065860013087694,0.263
1679065860020784640,0.878
1679065860028481586,1.308
1679065860036178532,0.8260000000000001
1679065860043875478,-0.313
1679065860051572424,-0.715
1679065860059269370,-0.217
1679065860066966316,0.006
1679065860074663262,-0.14400000000000002
1679065860082360208,-0.108
1679065860090057154,-0.002
1679065860097754100,-0.014
1679065860105451046,-0.016
1679065860113147992,0.002
1679065860120844938,-0.031
1679065860128541884,-0.041
1679065860136238830,-0.006
1679065860143935776,0.008
1679065860151632722,0.027
1679065860159329668,0.064
1679065860167026614,0.066
1679065860174723560,0.062
1679065860182420506,0.11
1679065860190117452,0.16
1679065860197814398,0.166
1679065860205511344,0.181
1679065860213208290,0.221
1679065860220905236,0.24
1679065860228602182,0.244
1679065860236299128,0.273
1679065860243996074,0.304
1679065860251693020,0.306
1679065860259389966,0.29
1679065860267086912,0.281
1679065860274783858,0.28800000000000003
1679065860282480804,0.29
1679065860290177750,0.281
1679065860297874696,0.258
1679065860305571642,0.221
1679065860313268588,0.183
1679065860320965534,0.158
1679065860328662480,0.162
1679065860336359426,0.177
1679065860344056372,0.166
1679065860351753318,0.123
1679065860359450264,0.064
1679065860367147210,0.02
1679065860374844156,0.008
1679065860382541102,0.012
1679065860390238048,0.02
1679065860397934994,0.02
1679065860405631940,-0.018000000000000002
1679065860413328886,-0.066
1679065860421025832,-0.058
1679065860428722778,-0.031
1679065860436419724,-0.039
1679065860444116682,-0.054,78
1679065860451813767,-0.039
1679065860459510852,-0.02
1679065860467207937,-0.02
1679065860474905022,-0.012
1679065860482602107,0.004
1679065860490299192,-0.018000000000000002
1679065860497996277,-0.077
1679065860505693362,-0.098
1679065860513390447,-0.091
1679065860521087532,-0.123
1679065860528784617,-0.166
1679065860536481702,-0.194
1679065860544178787,-0.20400000000000001
1679065860551875872,-0.20800000000000002
1679065860559572957,-0.20800000000000002
1679065860567270042,-0.196
1679065860574967127,-0.189
1679065860582664212,-0.2
1679065860590361297,-0.202
1679065860598058382,-0.181
1679065860605755467,-0.185
1679065860613452552,-0.225
1679065860621149637,-0.244
1679065860628846722,-0.231
1679065860636543807,-0.217
1679065860644240892,-0.20800000000000002
1679065860651937977,-0.194
1679065860659635062,-0.154
1679065860667332147,-0.108
1679065860675029232,-0.089
1679065860682726317,-0.077
1679065860690423402,-0.077
1679065860698120487,-0.096
1679065860705817572,-0.091
1679065860713514657,-0.073,,753
1679065860721211742,-0.066
1679065860728908827,-0.062
1679065860736605912,-0.045
1679065860744302997,-0.033
1679065860752000082,-0.002
1679065860759697167,0.17500000000000002
1679065860767394252,0.667
1679065860775091337,1.287
1679065860782788422,1.346
1679065860790485507,0.41500000000000004
1679065860798182592,-0.542
1679065860805879677,-0.386
1679065860813576762,0.106
1679065860821273847,0.048
1679065860828970932,-0.05
1679065860836668017,0.07
1679065860844365102,0.10200000000000001
1679065860852062187,0.05
1679065860859759272,0.039
1679065860867456357,0.052000000000000005
1679065860875153442,0.075
1679065860882850527,0.098
1679065860890547612,0.112
1679065860898244697,0.135
1679065860905941782,0.14400000000000002
1679065860913638867,0.10400000000000001
1679065860921335952,0.06
1679065860929033037,0.077
1679065860936730122,0.123
1679065860944427207,0.131
1679065860952124292,0.123
1679065860959821377,0.14400000000000002
1679065860967518462,0.177
1679065860975215547,0.194
1679065860982912632,0.212
1679065860990609717,0.24
1679065860998306802,0.23500000000000001
1679065861006003926,0.219
1679065861013700802,0.223
1679065861021397678,0.242
1679065861029094554,0.242
1679065861036791430,0.215
1679065861044488306,0.181
1679065861052185182,0.162
1679065861059882058,0.131
1679065861067578934,0.045
1679065861075275810,-0.018000000000000002
1679065861082972686,-0.014
1679065861090669562,-0.02
1679065861098366438,-0.066
1679065861106063314,-0.10400000000000001
1679065861113760190,-0.116
1679065861121457066,-0.114
1679065861129153942,-0.121
1679065861136850818,-0.129
1679065861144547694,-0.112
1679065861152244570,-0.098
1679065861159941446,-0.08700000000000001
1679065861167638322,-0.064
1679065861175335198,-0.043000000000000003
1679065861183032074,-0.048
1679065861190728950,-0.045
1679065861198425826,-0.025
1679065861206122702,-0.002
1679065861213819578,0.008
1679065861221516454,0.006
1679065861229213330,0.006
1679065861236910206,0.02
1679065861244607082,0.029
1679065861252303958,0.029
1679065861260000834,0.041
1679065861267697710,0.033
1679065861275394586,-0.012
1679065861283091462,-0.048
1679065861290788338,-0.062
1679065861298485214,-0.075
1679065861306182090,-0.083
1679065861313878966,-0.08700000000000001
1679065861321575842,-0.091
1679065861329272718,-0.098
1679065861336969594,-0.10400000000000001
1679065861344666470,-0.11800000000000001
1679065861352363346,-0.14100000000000001
1679065861360060222,-0.154
1679065861367757098,-0.154
1679065861375453974,-0.15
1679065861383150850,-0.133
1679065861390847726,-0.121
1679065861398544602,-0.11800000000000001
1679065861406241478,-0.10200000000000001
1679065861413938354,-0.091
1679065861421635230,-0.133
1679065861429332106,-0.166
1679065861437028982,-0.135
1679065861444725858,-0.133
1679065861452422734,-0.187
1679065861460119610,-0.198
1679065861467816486,-0.164
1679065861475513362,-0.146,,756
1679065861483210238,-0.133
1679065861490907114,-0.114
1679065861498603990,-0.106
1679065861506300866,-0.091
1679065861513997742,0.116
1679065861521694618,0.682
1679065861529391494,1.29
1679065861537088370,1.185
1679065861544785246,0.14400000000000002
1679065861552482122,-0.674
1679065861560178998,-0.377
1679065861567875910,0.064,79
1679065861575572786,-0.031
1679065861583269662,-0.08700000000000001
1679065861590966538,0.006
1679065861598663414,-0.06
1679065861606360290,-0.156
1679065861614057166,-0.131
1679065861621754042,-0.091
1679065861629450918,-0.089
1679065861637147794,-0.081
1679065861644844670,-0.064
1679065861652541546,-0.043000000000000003
1679065861660238422,-0.014
1679065861667935298,0.01
1679065861675632174,0.035
1679065861683329050,0.073
1679065861691025926,0.093
1679065861698722802,0.093
1679065861706419678,0.11800000000000001
1679065861714116554,0.166
1679065861721813430,0.192
1679065861729510306,0.2
1679065861737207182,0.215
1679065861744904058,0.227
1679065861752600934,0.23500000000000001
1679065861760297810,0.23500000000000001
1679065861767994686,0.242
1679065861775691562,0.252
1679065861783388438,0.242
1679065861791085314,0.225
1679065861798782190,0.231
1679065861806479066,0.229
1679065861814175942,0.2
1679065861821872818,0.171
1679065861829569694,0.139
1679065861837266570,0.096
1679065861844963446,0.052000000000000005
1679065861852660322,0.039
1679065861860357198,0.05
1679065861868054074,0.027
1679065861875750950,-0.016
1679065861883447826,-0.018000000000000002
1679065861891144702,0.012
1679065861898841578,0.031
1679065861906538454,0.035
1679065861914235330,0.039
1679065861921932206,0.004
1679065861929629082,-0.07
1679065861937325958,-0.1
1679065861945022834,-0.068
1679065861952719710,-0.045
1679065861960416586,-0.05
1679065861968113462,-0.054
1679065861975810338,-0.048
1679065861983507214,-0.025
1679065861991204090,-0.008
1679065861998900966,-0.01
1679065862006597842,-0.004
1679065862014294718,0.002
1679065862021991594,-0.016
1679065862029688470,-0.043000000000000003
1679065862037385346,-0.058
1679065862045082222,-0.075
1679065862052779098,-0.106
1679065862060475974,-0.139
1679065862068172850,-0.14400000000000002
1679065862075869726,-0.125
1679065862083566602,-0.133
1679065862091263478,-0.169
1679065862098960354,-0.17300000000000001
1679065862106657230,-0.16
1679065862114354106,-0.166
1679065862122050982,-0.171
1679065862129747894,-0.15
1679065862137444770,-0.127
1679065862145141646,-0.131
1679065862152838522,-0.129
1679065862160535398,-0.08700000000000001
1679065862168232274,-0.058
1679065862175929150,-0.083
1679065862183626026,-0.106
1679065862191322902,-0.121
1679065862199019778,-0.15
1679065862206716654,-0.16
1679065862214413530,-0.14100000000000001
1679065862222110406,-0.121
1679065862229807282,-0.096
1679065862237504158,-0.08700000000000001,,766
1679065862245201034,-0.106
1679065862252897910,-0.075
1679065862260594786,0.183
1679065862268291662,0.778
1679065862275988538,1.36
1679065862283685414,1.1520000000000001
1679065862291382290,0.031
1679065862299079166,-0.6900000000000001
1679065862306776042,-0.3
1679065862314472918,0.093
1679065862322169794,-0.012
1679065862329866670,-0.048
1679065862337563546,0.016
1679065862345260422,-0.004
1679065862352957298,-0.008
1679065862360654174,0.027
1679065862368351050,0.052000000000000005
1679065862376047926,0.079
1679065862383744802,0.085
1679065862391441678,0.081
1679065862399138554,0.114
1679065862406835430,0.158
1679065862414532306,0.177
1679065862422229182,0.16
1679065862429926058,0.112
1679065862437622934,0.075
1679065862445319810,0.089
1679065862453016686,0.11800000000000001
1679065862460713562,0.14100000000000001
1679065862468410438,0.162
1679065862476107314,0.164
1679065862483804190,0.164
1679065862491501066,0.198
1679065862499197942,0.227
1679065862506894818,0.225
1679065862514591694,0.223
1679065862522288570,0.229
1679065862529985446,0.225
1679065862537682322,0.221
1679065862545379198,0.219
1679065862553076074,0.21
1679065862560772950,0.181
1679065862568469826,0.131
1679065862576166702,0.077
1679065862583863578,0.039
1679065862591560454,0.031
1679065862599257330,0.027
1679065862606954206,0.022
1679065862614651082,0.039
1679065862622347958,0.041
1679065862630044834,0.016
1679065862637741710,0.016
1679065862645438586,0.043000000000000003
1679065862653135462,0.041
1679065862660832338,0.018000000000000002
1679065862668529214,0.02
1679065862676226090,0.048
1679065862683922966,0.064
1679065862691619880,0.064,79
1679065862699316756,0.07
1679065862707013632,0.07
1679065862714710508,0.064
1679065862722407384,0.07
1679065862730104260,0.089
1679065862737801136,0.10200000000000001
1679065862745498012,0.096
1679065862753194888,0.075
1679065862760891764,0.083
1679065862768588640,0.1
1679065862776285516,0.058
1679065862783982392,-0.004
1679065862791679268,-0.029
1679065862799376144,-0.056
1679065862807073020,-0.1
1679065862814769896,-0.139
1679065862822466772,-0.17300000000000001
1679065862830163648,-0.2
1679065862837860524,-0.229
1679065862845557400,-0.244
1679065862853254276,-0.23500000000000001
1679065862860951152,-0.221
1679065862868648028,-0.20800000000000002
1679065862876344904,-0.187
1679065862884041780,-0.17300000000000001
1679065862891738656,-0.17300000000000001
1679065862899435532,-0.181
1679065862907132408,-0.164
1679065862914829284,-0.11
1679065862922526160,-0.08700000000000001
1679065862930223036,-0.129
1679065862937919912,-0.169
1679065862945616788,-0.181
1679065862953313664,-0.196
1679065862961010540,-0.196
1679065862968707416,-0.169
1679065862976404292,-0.146
1679065862984101168,-0.14400000000000002
1679065862991798044,-0.14400000000000002
1679065862999494920,-0.131
1679065863007191796,-0.085,,766
1679065863014888672,0.164
1679065863022585548,0.755
1679065863030282424,1.296
1679065863037979300,1.018
1679065863045676176,-0.093
1679065863053373052,-0.732
1679065863061069928,-0.325
1679065863068766804,-0.012
1679065863076463680,-0.177
1679065863084160556,-0.192
1679065863091857432,-0.07
1679065863099554308,-0.075
1679065863107251184,-0.089
1679065863114948060,-0.035
1679065863122644936,-0.012
1679065863130341812,-0.012
1679065863138038688,0.012
1679065863145735564,0.045
1679065863153432440,0.075
1679065863161129316,0.1
1679065863168826192,0.10400000000000001
1679065863176523068,0.112
1679065863184219944,0.152
1679065863191916820,0.189
1679065863199613696,0.20800000000000002
1679065863207310572,0.227
1679065863215007448,0.248
1679065863222704324,0.265
1679065863230401200,0.279
1679065863238098076,0.311
1679065863245794952,0.34
1679065863253491864,0.336
1679065863261188949,0.308
1679065863268886034,0.308
1679065863276583119,0.329
1679065863284280204,0.329
1679065863291977289,0.311
1679065863299674374,0.298
1679065863307371459,0.26
1679065863315068544,0.187
1679065863322765629,0.137
1679065863330462714,0.129
1679065863338159799,0.116
1679065863345856884,0.066
1679065863353553969,0.006
1679065863361251054,0.004
1679065863368948139,0.037
1679065863376645224,0.039
1679065863384342309,0.041
1679065863392039394,0.054
1679065863399736479,0.033
1679065863407433564,0.01
1679065863415130649,0.022
1679065863422827734,0.027
1679065863430524819,-0.016
1679065863438221904,-0.083
1679065863445918989,-0.108
1679065863453616074,-0.093
1679065863461313159,-0.083
1679065863469010244,-0.085
1679065863476707329,-0.068
1679065863484404414,-0.05
1679065863492101499,-0.058
1679065863499798584,-0.068
1679065863507495669,-0.048
1679065863515192754,-0.016
1679065863522889839,-0.01
1679065863530586924,-0.012
1679065863538284009,-0.002
1679065863545981094,0.012
1679065863553678179,0.006
1679065863561375264,-0.039
1679065863569072349,-0.085
1679065863576769434,-0.116
1679065863584466519,-0.158
1679065863592163604,-0.192
1679065863599860689,-0.171
1679065863607557774,-0.139
1679065863615254859,-0.146
1679065863622951944,-0.164
1679065863630649029,-0.158
1679065863638346114,-0.127
1679065863646043199,-0.096
1679065863653740284,-0.068
1679065863661437369,-0.035
1679065863669134454,-0.037
1679065863676831539,-0.089
1679065863684528624,-0.106
1679065863692225709,-0.07
1679065863699922794,-0.048
1679065863707619879,-0.048
1679065863715316964,-0.041
1679065863723014049,-0.033
1679065863730711134,-0.035
1679065863738408219,0.06
1679065863746105304,0.47300000000000003
1679065863753802389,1.131,,751
1679065863761499474,1.436
1679065863769196559,0.738
1679065863776893644,-0.394
1679065863784590729,-0.551
1679065863792287814,0.004
1679065863799984899,0.08700000000000001
1679065863807681984,-0.089
1679065863815379106,-0.043000000000000003,79
1679065863823076052,-0.002
1679065863830772998,-0.039
1679065863838469944,-0.012
1679065863846166890,0.037
1679065863853863836,0.037
1679065863861560782,0.031
1679065863869257728,0.048
1679065863876954674,0.068
1679065863884651620,0.056
1679065863892348566,0.022
1679065863900045512,0.025
1679065863907742458,0.048
1679065863915439404,0.05
1679065863923136350,0.058
1679065863930833296,0.058
1679065863938530242,0.014
1679065863946227188,-0.022
1679065863953924134,-0.012
1679065863961621080,0.018000000000000002
1679065863969318026,0.041
1679065863977014972,0.05
1679065863984711918,0.064
1679065863992408864,0.075
1679065864000105810,0.066
1679065864007802756,0.062
1679065864015499702,0.073
1679065864023196648,0.083
1679065864030893594,0.07
1679065864038590540,0.033
1679065864046287486,-0.01
1679065864053984432,-0.052000000000000005
1679065864061681378,-0.096
1679065864069378324,-0.121
1679065864077075270,-0.10400000000000001
1679065864084772216,-0.07
1679065864092469162,-0.068
1679065864100166108,-0.077
1679065864107863054,-0.043000000000000003
1679065864115560000,0.0
1679065864123256946,0.016
1679065864130953892,0.022
1679065864138650838,0.031
1679065864146347784,0.018000000000000002
1679065864154044730,-0.004
1679065864161741676,-0.004
1679065864169438622,0.016
1679065864177135568,0.027
1679065864184832514,0.018000000000000002
1679065864192529460,0.014
1679065864200226406,0.033
1679065864207923352,0.05
1679065864215620298,0.05
1679065864223317244,0.05
1679065864231014190,0.058
1679065864238711136,0.058
1679065864246408082,0.056
1679065864254105028,0.075
1679065864261801974,0.098
1679065864269498920,0.10400000000000001
1679065864277195866,0.1
1679065864284892812,0.10400000000000001
1679065864292589758,0.11800000000000001
1679065864300286704,0.10200000000000001
1679065864307983650,0.031
1679065864315680596,-0.014
1679065864323377542,-0.025
1679065864331074488,-0.064
1679065864338771434,-0.1
1679065864346468380,-0.08700000000000001
1679065864354165326,-0.068
1679065864361862272,-0.079
1679065864369559218,-0.10200000000000001
1679065864377256176,-0.098
1679065864384953122,-0.056
1679065864392650068,-0.016
1679065864400347014,0.0
1679065864408043960,0.016
1679065864415740906,-0.008
1679065864423437852,-0.091
1679065864431134798,-0.148
1679065864438831744,-0.162
1679065864446528690,-0.215
1679065864454225636,-0.271
1679065864461922582,-0.269
1679065864469619528,-0.254
1679065864477316474,-0.244
1679065864485013420,-0.068
1679065864492710366,0.457
1679065864500407312,1.091
1679065864508104258,1.11,,753
1679065864515801204,0.146
1679065864523498150,-0.774
1679065864531195096,-0.5670000000000001
1679065864538892042,-0.068
1679065864546588988,-0.146
1679065864554285934,-0.267
1679065864561982880,-0.152
1679065864569679826,-0.108
1679065864577376772,-0.139
1679065864585073718,-0.098
1679065864592770664,-0.05
1679065864600467610,-0.045
1679065864608164556,-0.037
1679065864615861502,-0.002
1679065864623558448,0.037
1679065864631255394,0.062
1679065864638952340,0.075
1679065864646649286,0.08700000000000001
1679065864654346232,0.114
1679065864662043178,0.148
1679065864669740124,0.164
1679065864677437070,0.192
1679065864685134016,0.231
1679065864692830962,0.244
1679065864700527908,0.242
1679065864708224854,0.265
1679065864715921800,0.29
1679065864723618746,0.294
1679065864731315692,0.28800000000000003
1679065864739012638,0.28500000000000003
1679065864746709584,0.28800000000000003
1679065864754406530,0.292
1679065864762103476,0.292
1679065864769800422,0.292
1679065864777497368,0.281
1679065864785194314,0.248
1679065864792891260,0.20400000000000001
1679065864800588206,0.166
1679065864808285152,0.14100000000000001
1679065864815982098,0.133
1679065864823679044,0.137
1679065864831375990,0.14100000000000001
1679065864839072936,0.146
1679065864846769882,0.156
1679065864854466828,0.17300000000000001
1679065864862163774,0.198
1679065864869860720,0.215
1679065864877557666,0.20800000000000002
1679065864885254612,0.20400000000000001
1679065864892951558,0.223
1679065864900648504,0.223
1679065864908345450,0.187
1679065864916042396,0.171
1679065864923739342,0.177
1679065864931436288,0.169
1679065864939133246,0.158,79
1679065864946830192,0.14100000000000001
1679065864954527138,0.089
1679065864962224084,0.027
1679065864969921030,-0.002
1679065864977617976,-0.008
1679065864985314922,-0.004
1679065864993011868,-0.016
1679065865000708814,-0.062
1679065865008405760,-0.085
1679065865016102706,-0.073
1679065865023799652,-0.075
1679065865031496598,-0.091
1679065865039193544,-0.114
1679065865046890490,-0.135
1679065865054587436,-0.158
1679065865062284382,-0.189
1679065865069981328,-0.20800000000000002
1679065865077678274,-0.219
1679065865085375220,-0.248
1679065865093072166,-0.258
1679065865100769112,-0.242
1679065865108466058,-0.246
1679065865116163004,-0.26
1679065865123859950,-0.25
1679065865131556896,-0.227
1679065865139253842,-0.20800000000000002
1679065865146950788,-0.183
1679065865154647734,-0.152
1679065865162344680,-0.116
1679065865170041626,-0.085
1679065865177738572,-0.10200000000000001
1679065865185435518,-0.129
1679065865193132464,-0.11
1679065865200829410,-0.093
1679065865208526356,-0.108
1679065865216223302,-0.091
1679065865223920248,-0.054
1679065865231617194,-0.056
1679065865239314140,-0.058
1679065865247011086,0.125
1679065865254708032,0.659,,746
1679065865262404978,1.283
1679065865270101924,1.294
1679065865277798870,0.331
1679065865285495816,-0.607
1679065865293192762,-0.47300000000000003
1679065865300889708,-0.029
1679065865308586654,-0.064
1679065865316283600,-0.121
1679065865323980546,-0.016
1679065865331677492,-0.006
1679065865339374438,-0.029
1679065865347071384,0.016
1679065865354768330,0.048
1679065865362465276,0.05
1679065865370162222,0.081
1679065865377859168,0.11800000000000001
1679065865385556114,0.121
1679065865393253060,0.125
1679065865400950006,0.156
1679065865408646952,0.187
1679065865416343898,0.202
1679065865424040844,0.212
1679065865431737790,0.231
1679065865439434736,0.246
1679065865447131682,0.252
1679065865454828628,0.267
1679065865462525574,0.256
1679065865470222520,0.20400000000000001
1679065865477919466,0.171
1679065865485616412,0.181
1679065865493313358,0.198
1679065865501010318,0.196,79
1679065865508707194,0.183
1679065865516404070,0.183
1679065865524100946,0.179
1679065865531797822,0.146
1679065865539494698,0.10400000000000001
1679065865547191574,0.085
1679065865554888450,0.083
1679065865562585326,0.035
1679065865570282202,-0.056
1679065865577979078,-0.08700000000000001
1679065865585675954,-0.05
1679065865593372830,-0.037
1679065865601069706,-0.052000000000000005
1679065865608766582,-0.031
1679065865616463458,-0.004
1679065865624160334,-0.004
1679065865631857210,0.008
1679065865639554086,0.025
1679065865647250962,0.025
1679065865654947838,0.014
1679065865662644714,-0.004
1679065865670341590,-0.018000000000000002
1679065865678038466,0.002
1679065865685735342,0.025
1679065865693432218,0.031
1679065865701129094,0.043000000000000003
1679065865708825970,0.048
1679065865716522846,0.029
1679065865724219722,0.033
1679065865731916598,0.054
1679065865739613474,0.066
1679065865747310350,0.075
1679065865755007226,0.068
1679065865762704102,0.056
1679065865770400978,0.073
1679065865778097854,0.083
1679065865785794730,0.064
1679065865793491606,0.052000000000000005
1679065865801188482,0.048
1679065865808885358,0.02
1679065865816582234,-0.01
1679065865824279110,-0.022
1679065865831975986,-0.048
1679065865839672862,-0.075
1679065865847369738,-0.081
1679065865855066614,-0.073
1679065865862763490,-0.066
1679065865870460366,-0.073
1679065865878157242,-0.077
1679065865885854118,-0.064
1679065865893550994,-0.054
1679065865901247870,-0.048
1679065865908944746,-0.027
1679065865916641622,0.012
1679065865924338498,0.045
1679065865932035374,0.022
1679065865939732250,-0.027
1679065865947429126,-0.02
1679065865955126002,0.01
1679065865962822878,-0.02
1679065865970519754,-0.077
1679065865978216630,-0.081
1679065865985913506,-0.093
1679065865993610382,-0.093
1679065866001307258,0.146
1679065866009004134,0.726,,754
1679065866016701010,1.2750000000000001
1679065866024397886,1.062
1679065866032094762,-0.056
1679065866039791638,-0.8320000000000001
1679065866047488514,-0.482
1679065866055185390,-0.077
1679065866062882304,-0.17300000000000001
1679065866070579180,-0.185
1679065866078276056,-0.08700000000000001
1679065866085972932,-0.10400000000000001
1679065866093669808,-0.1
1679065866101366684,-0.035
1679065866109063560,-0.018000000000000002
1679065866116760436,-0.02
1679065866124457312,0.0
1679065866132154188,0.0
1679065866139851064,-0.033
1679065866147547940,-0.037
1679065866155244816,-0.002
1679065866162941692,0.016
1679065866170638568,0.008
1679065866178335444,0.035
1679065866186032320,0.08700000000000001
1679065866193729196,0.108
1679065866201426072,0.116
1679065866209122948,0.148
1679065866216819824,0.17300000000000001
1679065866224516700,0.179
1679065866232213576,0.192
1679065866239910452,0.212
1679065866247607328,0.229
1679065866255304204,0.229
1679065866263001080,0.20800000000000002
1679065866270697956,0.183
1679065866278394832,0.15
1679065866286091708,0.106
1679065866293788584,0.075
1679065866301485460,0.062
1679065866309182336,0.037
1679065866316879212,0.002
1679065866324576088,-0.004
1679065866332272964,0.022
1679065866339969840,0.041
1679065866347666716,0.037
1679065866355363592,0.033
1679065866363060468,0.054
1679065866370757344,0.089
1679065866378454220,0.10400000000000001
1679065866386151096,0.114
1679065866393847972,0.131
1679065866401544848,0.114
1679065866409241724,0.085
1679065866416938600,0.093
1679065866424635476,0.114
1679065866432332352,0.114
1679065866440029228,0.108
1679065866447726104,0.098
1679065866455422980,0.10200000000000001
1679065866463119856,0.089
1679065866470816732,0.035
1679065866478513608,0.006
1679065866486210484,0.02
1679065866493907360,0.012
1679065866501604236,-0.01
1679065866509301112,-0.004
1679065866516997988,-0.012
1679065866524694864,-0.052000000000000005
1679065866532391740,-0.07
1679065866540088616,-0.058
1679065866547785492,-0.054
1679065866555482368,-0.066
1679065866563179244,-0.085
1679065866570876120,-0.091
1679065866578572996,-0.108
1679065866586269872,-0.16
1679065866593966748,-0.185
1679065866601663624,-0.154
1679065866609360500,-0.137
1679065866617057376,-0.15
1679065866624754288,-0.158,79
1679065866632451164,-0.152
1679065866640148040,-0.129
1679065866647844916,-0.098
1679065866655541792,-0.066
1679065866663238668,-0.031
1679065866670935544,-0.027
1679065866678632420,-0.079
1679065866686329296,-0.108
1679065866694026172,-0.075
1679065866701723048,-0.075
1679065866709419924,-0.125
1679065866717116800,-0.146
1679065866724813676,-0.133
1679065866732510552,-0.14400000000000002,,728
1679065866740207428,-0.07
1679065866747904304,0.319
1679065866755601180,0.978
1679065866763298056,1.327
1679065866770994932,0.672
1679065866778691808,-0.488
1679065866786388684,-0.72
1679065866794085560,-0.17500000000000002
1679065866801782436,-0.05
1679065866809479312,-0.192
1679065866817176188,-0.114
1679065866824873064,-0.056
1679065866832569940,-0.089
1679065866840266816,-0.045
1679065866847963692,0.014
1679065866855660568,0.01
1679065866863357444,0.01
1679065866871054320,0.045
