ts,red,ir,green
1679065856094881,96597.0,100970.0,9577.0
1679065856104881,96605.0,100959.0,9569.0
1679065856114881,96600.0,100967.0,9541.0
1679065856124881,96600.0,100967.0,9547.0
1679065856134881,96584.0,100977.0,9585.0
1679065856144881,96598.0,101023.0,9582.0
1679065856155881,96679.0,101102.0,9602.0
1679065856164881,96778.0,101245.0,9610.0
1679065856174881,96931.0,101385.0,9563.0
1679065856184881,97039.0,101542.0,9635.0
1679065856194881,97226.0,101704.0,9640.0
1679065856204881,97351.0,101872.0,9659.0
1679065856214881,97484.0,101975.0,9669.0
1679065856224881,97545.0,102037.0,9668.0
1679065856235881,97582.0,102057.0,9680.0
1679065856244881,97561.0,102003.0,9673.0
1679065856253881,97498.0,101925.0,9642.0
1679065856265881,97429.0,101843.0,9623.0
1679065856274881,97331.0,101741.0,9645.0
1679065856285881,97246.0,101669.0,9648.0
1679065856294881,97144.0,101588.0,9631.0
1679065856304881,97066.0,101486.0,9628.0
1679065856314881,96986.0,101414.0,9604.0
1679065856325881,96902.0,101307.0,9605.0
1679065856334881,96838.0,101205.0,9590.0
1679065856344881,96781.0,101160.0,9584.0
1679065856354881,96707.0,101085.0,9588.0
1679065856366881,96657.0,101039.0,9586.0
1679065856375881,96622.0,101013.0,9564.0
1679065856383881,96570.0,100999.0,9540.0
1679065856394881,96577.0,100999.0,9542.0
1679065856404881,96551.0,100995.0,9578.0
1679065856415881,96572.0,101009.0,9581.0
1679065856424881,96579.0,101039.0,9586.0
1679065856433881,96650.0,101075.0,9560.0
1679065856444881,96675.0,101132.0,9544.0
1679065856454881,96712.0,101140.0,9576.0
1679065856466881,96744.0,101180.0,9588.0
1679065856474881,96781.0,101191.0,9581.0
1679065856484881,96819.0,101253.0,9607.0
1679065856494881,96830.0,101199.0,9592.0
1679065856504881,96840.0,101218.0,9614.0
1679065856514881,96836.0,101212.0,9607.0
1679065856524881,96831.0,101229.0,9606.0
1679065856534881,96818.0,101210.0,9611.0
1679065856544881,96798.0,101223.0,9601.0
1679065856554881,96790.0,101216.0,9599.0
1679065856566881,96777.0,101192.0,9599.0
1679065856574881,96760.0,101179.0,9594.0
1679065856585881,96739.0,101144.0,9593.0
1679065856594881,96723.0,101134.0,9591.0
1679065856604881,96719.0,101146.0,9589.0
1679065856614881,96701.0,101121.0,9580.0
1679065856624881,96696.0,101099.0,9591.0
1679065856633881,96676.0,101094.0,9583.0
1679065856644881,96648.0,101089.0,9584.0
1679065856654881,96656.0,101080.0,9572.0
1679065856665881,96665.0,101099.0,9576.0
1679065856673880,96666.0,101077.0,9576.0
1679065856684880,96638.0,101065.0,9590.0
1679065856694880,96620.0,101074.0,9583.0
1679065856704880,96671.0,101082.0,9577.0
1679065856713880,96680.0,101073.0,9576.0
1679065856724880,96674.0,101077.0,9590.0
1679065856734880,96676.0,101020.0,9584.0
1679065856745880,96672.0,101030.0,9591.0
1679065856753880,96667.0,101041.0,9586.0
1679065856763880,96694.0,101054.0,9566.0
1679065856774881,96699.0,101071.0,9576.0
1679065856784881,96679.0,101070.0,9587.0
1679065856794881,96702.0,101070.0,9548.0
1679065856803881,96663.0,101068.0,9581.0
1679065856814881,96663.0,101081.0,9582.0
1679065856824881,96700.0,101031.0,9592.0
1679065856835881,96673.0,101046.0,9594.0
1679065856844881,96680.0,101056.0,9585.0
1679065856853881,96674.0,101056.0,9557.0
1679065856864881,96678.0,101044.0,9541.0
1679065856875881,96660.0,101055.0,9553.0
1679065856883880,96665.0,101036.0,9583.0
1679065856894880,96656.0,101035.0,9588.0
1679065856904880,96657.0,101038.0,9582.0
1679065856915880,96651.0,101035.0,9588.0
1679065856923880,96673.0,101060.0,9588.0
1679065856933880,96732.0,101123.0,9597.0
1679065856944880,96815.0,101238.0,9586.0
1679065856954881,96932.0,101380.0,9621.0
1679065856964881,97065.0,101582.0,9645.0
1679065856973881,97282.0,101696.0,9659.0
1679065856984881,97423.0,101917.0,9672.0
1679065856994881,97547.0,102021.0,9674.0
1679065857003881,97601.0,102108.0,9678.0
1679065857014881,97655.0,102139.0,9687.0
1679065857023881,97636.0,102130.0,9694.0
1679065857034881,97590.0,102057.0,9689.0
1679065857044881,97500.0,101982.0,9670.0
1679065857054881,97398.0,101871.0,9660.0
1679065857063881,97308.0,101767.0,9657.0
1679065857074881,97236.0,101685.0,9631.0
1679065857084881,97147.0,101598.0,9628.0
1679065857094881,97048.0,101529.0,9629.0
1679065857103881,96984.0,101442.0,9624.0
1679065857114881,96930.0,101372.0,9601.0
1679065857124881,96866.0,101300.0,9597.0
1679065857134881,96804.0,101239.0,9593.0
1679065857144881,96744.0,101174.0,9596.0
1679065857153881,96705.0,101115.0,9562.0
1679065857164881,96675.0,101086.0,9556.0
1679065857173881,96652.0,101073.0,9546.0
1679065857184881,96652.0,101036.0,9588.0
1679065857194881,96675.0,101067.0,9586.0
1679065857203881,96695.0,101124.0,9593.0
1679065857213881,96756.0,101167.0,9575.0
1679065857223881,96789.0,101201.0,9578.0
1679065857234881,96841.0,101251.0,9581.0
1679065857244881,96837.0,101295.0,9604.0
1679065857253881,96865.0,101355.0,9611.0
1679065857263881,96894.0,101377.0,9620.0
1679065857274881,96961.0,101413.0,9610.0
1679065857284881,96971.0,101416.0,9620.0
1679065857294880,96958.0,101414.0,9610.0
1679065857303881,96960.0,101384.0,9619.0
1679065857314881,96948.0,101371.0,9611.0
1679065857324881,96947.0,101333.0,9605.0
1679065857334881,96899.0,101346.0,9614.0
1679065857343881,96889.0,101332.0,9608.0
1679065857354881,96845.0,101314.0,9601.0
1679065857363881,96858.0,101294.0,9581.0
1679065857374881,96839.0,101265.0,9589.0
1679065857383881,96850.0,101265.0,9585.0
1679065857393881,96827.0,101242.0,9571.0
1679065857403881,96791.0,101228.0,9586.0
1679065857414881,96791.0,101209.0,9586.0
1679065857423881,96787.0,101197.0,9585.0
1679065857434881,96783.0,101195.0,9593.0
1679065857443881,96774.0,101170.0,9597.0
1679065857454881,96756.0,101100.0,9599.0
1679065857463881,96758.0,101130.0,9593.0
1679065857474881,96749.0,101141.0,9599.0
1679065857483881,96747.0,101210.0,9582.0
1679065857494881,96746.0,101144.0,9586.0
1679065857503881,96755.0,101115.0,9578.0
1679065857513881,96710.0,101162.0,9592.0
1679065857524881,96714.0,101166.0,9605.0
1679065857534881,96724.0,101162.0,9598.0
1679065857544881,96761.0,101115.0,9573.0
1679065857553881,96759.0,101100.0,9591.0
1679065857564881,96774.0,101156.0,9599.0
1679065857573881,96766.0,101152.0,9596.0
1679065857584881,96761.0,101171.0,9564.0
1679065857593881,96759.0,101095.0,9589.0
1679065857603881,96770.0,101146.0,9589.0
1679065857614881,96760.0,101141.0,9592.0
1679065857623881,96745.0,101128.0,9587.0
1679065857633881,96739.0,101107.0,9577.0
1679065857643881,96739.0,101108.0,9578.0
1679065857654881,96738.0,101129.0,9557.0
1679065857664881,96718.0,101120.0,9597.0
1679065857674881,96714.0,101120.0,9590.0
1679065857683881,96714.0,101086.0,9588.0
1679065857694881,96745.0,101150.0,9595.0
1679065857704881,96810.0,101243.0,9601.0
1679065857713881,96903.0,101361.0,9615.0
1679065857723881,97031.0,101520.0,9629.0
1679065857733881,97182.0,101683.0,9649.0
1679065857744881,97337.0,101836.0,9664.0
1679065857753881,97475.0,101986.0,9684.0
1679065857763881,97585.0,102044.0,9691.0
1679065857775881,97656.0,102113.0,9685.0
1679065857784881,97679.0,102166.0,9704.0
1679065857794881,97653.0,102090.0,9675.0
1679065857803881,97586.0,102035.0,9676.0
1679065857813881,97515.0,101962.0,9675.0
1679065857823881,97438.0,101875.0,9669.0
1679065857834881,97350.0,101768.0,9643.0
1679065857843881,97219.0,101693.0,9624.0
1679065857853881,97160.0,101619.0,9629.0
1679065857863881,97056.0,101538.0,9629.0
1679065857876881,97026.0,101473.0,9618.0
1679065857883881,96954.0,101405.0,9615.0
1679065857893881,96891.0,101301.0,9600.0
1679065857903881,96839.0,101286.0,9559.0
1679065857913881,96782.0,101226.0,9577.0
1679065857923881,96713.0,101200.0,9603.0
1679065857933881,96694.0,101173.0,9591.0
1679065857943881,96686.0,101170.0,9599.0
1679065857953881,96702.0,101189.0,9584.0
1679065857963881,96752.0,101208.0,9590.0
1679065857973881,96795.0,101249.0,9584.0
1679065857983881,96836.0,101302.0,9603.0
1679065857993881,96837.0,101319.0,9608.0
1679065858003881,96903.0,101375.0,9608.0
1679065858013881,96949.0,101412.0,9600.0
1679065858023881,96989.0,101473.0,9605.0
1679065858033881,97020.0,101476.0,9617.0
1679065858043881,97026.0,101478.0,9625.0
1679065858053881,97030.0,101484.0,9604.0
1679065858063881,97024.0,101474.0,9602.0
1679065858074881,97020.0,101456.0,9586.0
1679065858083881,96970.0,101447.0,9612.0
1679065858093881,96961.0,101417.0,9605.0
1679065858103881,96928.0,101399.0,9621.0
1679065858114881,96941.0,101406.0,9599.0
1679065858123881,96927.0,101363.0,9620.0
1679065858133881,96898.0,101349.0,9613.0
1679065858143881,96878.0,101314.0,9604.0
1679065858154881,96863.0,101307.0,9601.0
1679065858163881,96849.0,101237.0,9596.0
1679065858173881,96837.0,101231.0,9603.0
1679065858183881,96825.0,101208.0,9604.0
1679065858193881,96809.0,101255.0,9599.0
1679065858203881,96798.0,101217.0,9600.0
1679065858213881,96802.0,101218.0,9589.0
1679065858223881,96791.0,101195.0,9590.0
1679065858233881,96766.0,101210.0,9595.0
1679065858243881,96755.0,101209.0,9605.0
1679065858253881,96744.0,101224.0,9591.0
1679065858263881,96797.0,101210.0,9607.0
1679065858273881,96784.0,101194.0,9600.0
1679065858283881,96783.0,101180.0,9598.0
1679065858293881,96786.0,101212.0,9589.0
1679065858303881,96789.0,101223.0,9592.0
1679065858313881,96796.0,101228.0,9593.0
1679065858324881,96790.0,101179.0,9599.0
1679065858333881,96807.0,101177.0,9603.0
1679065858343881,96791.0,101209.0,9600.0
1679065858353881,96779.0,101198.0,9592.0
1679065858364881,96773.0,101186.0,9591.0
1679065858373881,96760.0,101183.0,9591.0
1679065858383881,96765.0,101172.0,9594.0
1679065858393881,96750.0,101122.0,9585.0
1679065858403881,96738.0,101103.0,9596.0
1679065858414881,96722.0,101153.0,9586.0
1679065858422881,96723.0,101143.0,9590.0
1679065858433880,96722.0,101159.0,9590.0
1679065858443880,96756.0,101109.0,9595.0
1679065858454880,96806.0,101220.0,9614.0
1679065858462880,96896.0,101344.0,9612.0
1679065858473880,97032.0,101514.0,9623.0
1679065858483880,97197.0,101709.0,9645.0
1679065858494880,97347.0,101813.0,9656.0
1679065858503880,97473.0,101989.0,9662.0
1679065858512880,97586.0,102107.0,9687.0
1679065858523880,97650.0,102167.0,9681.0
1679065858533880,97678.0,102185.0,9676.0
1679065858543880,97665.0,102156.0,9666.0
1679065858552880,97607.0,102087.0,9644.0
1679065858563880,97518.0,102002.0,9674.0
1679065858573881,97438.0,101922.0,9659.0
1679065858584881,97346.0,101812.0,9651.0
1679065858593881,97260.0,101715.0,9642.0
1679065858602881,97179.0,101646.0,9615.0
1679065858613881,97098.0,101580.0,9617.0
1679065858623881,96982.0,101497.0,9624.0
1679065858633881,96934.0,101441.0,9605.0
1679065858643881,96868.0,101372.0,9596.0
1679065858653881,96810.0,101264.0,9590.0
1679065858663881,96762.0,101202.0,9578.0
1679065858673881,96723.0,101170.0,9597.0
1679065858683881,96706.0,101144.0,9595.0
1679065858693881,96682.0,101170.0,9576.0
1679065858703881,96693.0,101152.0,9573.0
1679065858713881,96715.0,101192.0,9590.0
1679065858723881,96759.0,101233.0,9592.0
1679065858732881,96787.0,101262.0,9591.0
1679065858743881,96811.0,101297.0,9582.0
1679065858753881,96837.0,101333.0,9612.0
1679065858763881,96876.0,101381.0,9613.0
1679065858773881,96937.0,101367.0,9614.0
1679065858784881,96974.0,101419.0,9623.0
1679065858793881,96981.0,101450.0,9609.0
1679065858802881,96963.0,101472.0,9621.0
1679065858813881,96962.0,101476.0,9625.0
1679065858823881,96947.0,101476.0,9624.0
1679065858833881,96958.0,101474.0,9612.0
1679065858842881,96972.0,101450.0,9617.0
1679065858853881,96964.0,101439.0,9605.0
1679065858863881,96959.0,101423.0,9606.0
1679065858873881,96935.0,101419.0,9614.0
1679065858882881,96933.0,101370.0,9606.0
1679065858893881,96890.0,101368.0,9608.0
1679065858903881,96887.0,101306.0,9602.0
1679065858913881,96880.0,101300.0,9609.0
1679065858922881,96873.0,101329.0,9613.0
1679065858932881,96857.0,101320.0,9609.0
1679065858943881,96853.0,101299.0,9595.0
1679065858953881,96840.0,101309.0,9607.0
1679065858963881,96838.0,101272.0,9596.0
1679065858973881,96830.0,101282.0,9596.0
1679065858982881,96839.0,101310.0,9599.0
1679065858993881,96850.0,101311.0,9602.0
1679065859003881,96828.0,101315.0,9609.0
1679065859013881,96859.0,101327.0,9610.0
1679065859022881,96858.0,101307.0,9608.0
1679065859033881,96872.0,101339.0,9607.0
1679065859043881,96871.0,101293.0,9610.0
1679065859053881,96869.0,101288.0,9604.0
1679065859062881,96858.0,101268.0,9596.0
1679065859073881,96877.0,101271.0,9602.0
1679065859083881,96867.0,101245.0,9605.0
1679065859093881,96857.0,101273.0,9610.0
1679065859102881,96857.0,101264.0,9599.0
1679065859113881,96858.0,101255.0,9596.0
1679065859123881,96857.0,101233.0,9606.0
1679065859132881,96789.0,101300.0,9602.0
1679065859143881,96802.0,101306.0,9609.0
1679065859153881,96799.0,101292.0,9608.0
1679065859163881,96803.0,101265.0,9599.0
1679065859172881,96797.0,101271.0,9610.0
1679065859182881,96786.0,101270.0,9605.0
1679065859193881,96797.0,101302.0,9614.0
1679065859202881,96878.0,101343.0,9580.0
1679065859212881,96947.0,101450.0,9587.0
1679065859222881,97034.0,101574.0,9636.0
1679065859233881,97190.0,101770.0,9647.0
1679065859243881,97350.0,101934.0,9667.0
1679065859253881,97500.0,102084.0,9669.0
1679065859262881,97644.0,102201.0,9684.0
1679065859273881,97750.0,102316.0,9683.0
1679065859283881,97805.0,102355.0,9701.0
1679065859293881,97815.0,102366.0,9712.0
1679065859302881,97777.0,102293.0,9687.0
1679065859312881,97723.0,102235.0,9691.0
1679065859323881,97634.0,102132.0,9663.0
1679065859333881,97551.0,102038.0,9659.0
1679065859342881,97453.0,101952.0,9667.0
1679065859352881,97361.0,101871.0,9648.0
1679065859363881,97282.0,101750.0,9646.0
1679065859373881,97228.0,101717.0,9642.0
1679065859382881,97146.0,101642.0,9623.0
1679065859392881,97077.0,101556.0,9610.0
1679065859403881,96986.0,101474.0,9624.0
1679065859413881,96926.0,101435.0,9608.0
1679065859422881,96869.0,101385.0,9609.0
1679065859432881,96857.0,101351.0,9601.0
1679065859442881,96826.0,101321.0,9574.0
1679065859453881,96830.0,101316.0,9554.0
1679065859462881,96839.0,101340.0,9562.0
1679065859472881,96864.0,101370.0,9569.0
1679065859482881,96882.0,101415.0,9599.0
1679065859493881,96939.0,101423.0,9610.0
1679065859503881,96971.0,101498.0,9616.0
1679065859513881,97020.0,101542.0,9621.0
1679065859522881,97049.0,101571.0,9620.0
1679065859533881,97080.0,101592.0,9621.0
1679065859543881,97099.0,101617.0,9623.0
1679065859552881,97100.0,101613.0,9610.0
1679065859562881,97106.0,101620.0,9606.0
1679065859572881,97086.0,101610.0,9601.0
1679065859583881,97067.0,101581.0,9615.0
1679065859592881,97044.0,101562.0,9623.0
1679065859602881,97035.0,101563.0,9592.0
1679065859612881,97012.0,101528.0,9605.0
1679065859623880,96997.0,101508.0,9612.0
1679065859632881,96969.0,101498.0,9622.0
1679065859642881,96952.0,101460.0,9612.0
1679065859652881,96911.0,101450.0,9608.0
1679065859663881,96911.0,101431.0,9602.0
1679065859672881,96914.0,101418.0,9606.0
1679065859682881,96895.0,101384.0,9604.0
1679065859693881,96888.0,101382.0,9609.0
1679065859703881,96908.0,101379.0,9605.0
1679065859712881,96866.0,101366.0,9603.0
1679065859722881,96867.0,101350.0,9605.0
1679065859732881,96851.0,101355.0,9595.0
1679065859743881,96857.0,101331.0,9586.0
1679065859753881,96847.0,101330.0,9584.0
1679065859762881,96821.0,101298.0,9597.0
1679065859772881,96823.0,101269.0,9597.0
1679065859783881,96821.0,101282.0,9596.0
1679065859793881,96819.0,101304.0,9601.0
1679065859802881,96820.0,101306.0,9597.0
1679065859812881,96818.0,101243.0,9598.0
1679065859823881,96822.0,101293.0,9603.0
1679065859833881,96818.0,101288.0,9599.0
1679065859842881,96827.0,101300.0,9590.0
1679065859852881,96801.0,101276.0,9592.0
1679065859862881,96790.0,101262.0,9581.0
1679065859872881,96781.0,101256.0,9597.0
1679065859882881,96764.0,101267.0,9580.0
1679065859892881,96754.0,101255.0,9597.0
1679065859902881,96745.0,101252.0,9574.0
1679065859912881,96736.0,101236.0,9591.0
1679065859922881,96730.0,101226.0,9592.0
1679065859932881,96714.0,101230.0,9594.0
1679065859943881,96735.0,101221.0,9595.0
1679065859952881,96735.0,101229.0,9587.0
1679065859962881,96765.0,101233.0,9590.0
1679065859972881,96802.0,101287.0,9592.0
1679065859983881,96891.0,101403.0,9608.0
1679065859992881,97010.0,101529.0,9622.0
1679065860003881,97154.0,101721.0,9599.0
1679065860012881,97312.0,101879.0,9657.0
1679065860023881,97447.0,102033.0,9670.0
1679065860032881,97576.0,102153.0,9684.0
1679065860043881,97664.0,102249.0,9692.0
1679065860052881,97725.0,102303.0,9698.0
1679065860062881,97742.0,102309.0,9695.0
1679065860073881,97689.0,102250.0,9693.0
1679065860082881,97618.0,102150.0,9681.0
1679065860093881,97531.0,102017.0,9680.0
1679065860102881,97452.0,101951.0,9657.0
1679065860113880,97361.0,101902.0,9663.0
1679065860122881,97288.0,101765.0,9640.0
1679065860132881,97203.0,101714.0,9641.0
1679065860142881,97125.0,101639.0,9628.0
1679065860153880,97051.0,101581.0,9626.0
1679065860162881,96989.0,101513.0,9609.0
1679065860172881,96924.0,101442.0,9614.0
1679065860182881,96870.0,101386.0,9602.0
1679065860192881,96838.0,101352.0,9597.0
1679065860203881,96816.0,101313.0,9579.0
1679065860211881,96745.0,101319.0,9590.0
1679065860222880,96772.0,101334.0,9585.0
1679065860232880,96792.0,101351.0,9582.0
1679065860242880,96845.0,101375.0,9602.0
1679065860253880,96890.0,101419.0,9599.0
1679065860261880,96940.0,101461.0,9607.0
1679065860272880,96987.0,101509.0,9609.0
1679065860282880,97021.0,101562.0,9603.0
1679065860293880,97070.0,101602.0,9591.0
1679065860301880,97097.0,101626.0,9616.0
1679065860312880,97111.0,101642.0,9625.0
1679065860322880,97054.0,101647.0,9633.0
1679065860333880,97108.0,101653.0,9637.0
1679065860341880,97105.0,101624.0,9627.0
1679065860352880,97088.0,101619.0,9628.0
1679065860362880,97067.0,101568.0,9620.0
1679065860373881,97054.0,101546.0,9618.0
1679065860382881,97040.0,101507.0,9622.0
1679065860391881,97018.0,101540.0,9613.0
1679065860402881,96976.0,101522.0,9628.0
1679065860412881,96985.0,101492.0,9585.0
1679065860422881,96958.0,101461.0,9607.0
1679065860432881,96941.0,101418.0,9596.0
1679065860442881,96927.0,101413.0,9603.0
1679065860452881,96923.0,101369.0,9599.0
1679065860462881,96906.0,101375.0,9607.0
1679065860472881,96882.0,101366.0,9601.0
1679065860482881,96884.0,101374.0,9603.0
1679065860492881,96877.0,101380.0,9599.0
1679065860503881,96860.0,101363.0,9602.0
1679065860512881,96864.0,101328.0,9600.0
1679065860522881,96846.0,101347.0,9599.0
1679065860532881,96842.0,101359.0,9598.0
1679065860543881,96844.0,101358.0,9593.0
1679065860552881,96861.0,101350.0,9600.0
1679065860562881,96858.0,101356.0,9601.0
1679065860572881,96834.0,101352.0,9598.0
1679065860582881,96852.0,101353.0,9593.0
1679065860591881,96846.0,101352.0,9589.0
1679065860602881,96828.0,101344.0,9575.0
1679065860612881,96855.0,101347.0,9590.0
1679065860622881,96861.0,101322.0,9583.0
1679065860631881,96810.0,101329.0,9588.0
1679065860642881,96817.0,101347.0,9602.0
1679065860652881,96805.0,101343.0,9590.0
1679065860662881,96829.0,101332.0,9598.0
1679065860671881,96825.0,101315.0,9601.0
1679065860682881,96823.0,101310.0,9594.0
1679065860692881,96823.0,101299.0,9593.0
1679065860702881,96802.0,101278.0,9598.0
1679065860711881,96798.0,101301.0,9604.0
1679065860722881,96793.0,101317.0,9592.0
1679065860732881,96843.0,101349.0,9598.0
1679065860742881,96909.0,101457.0,9599.0
1679065860752881,97020.0,101582.0,9619.0
1679065860761881,97169.0,101740.0,9637.0
1679065860772881,97337.0,101905.0,9635.0
1679065860782881,97475.0,102070.0,9666.0
1679065860792881,97606.0,102207.0,9680.0
1679065860801881,97709.0,102299.0,9698.0
1679065860812881,97777.0,102382.0,9655.0
1679065860822881,97799.0,102414.0,9685.0
1679065860832881,97768.0,102349.0,9689.0
1679065860841881,97703.0,102267.0,9682.0
1679065860852881,97615.0,102177.0,9677.0
1679065860862881,97526.0,102075.0,9663.0
1679065860872881,97443.0,101993.0,9642.0
1679065860881881,97363.0,101870.0,9641.0
1679065860892881,97288.0,101803.0,9633.0
1679065860902881,97217.0,101725.0,9631.0
1679065860912881,97133.0,101684.0,9589.0
1679065860921881,97071.0,101602.0,9613.0
1679065860931881,96966.0,101524.0,9603.0
1679065860942881,96914.0,101450.0,9601.0
1679065860952881,96842.0,101416.0,9596.0
1679065860961881,96829.0,101366.0,9595.0
1679065860971881,96807.0,101337.0,9589.0
1679065860982881,96798.0,101325.0,9592.0
1679065860992881,96813.0,101309.0,9583.0
1679065861002881,96839.0,101330.0,9601.0
1679065861011881,96907.0,101412.0,9592.0
1679065861022881,96905.0,101396.0,9601.0
1679065861032881,96935.0,101450.0,9611.0
1679065861043881,96978.0,101506.0,9615.0
1679065861051880,97011.0,101567.0,9608.0
1679065861062880,97041.0,101599.0,9615.0
1679065861072880,97064.0,101614.0,9616.0
1679065861082880,97028.0,101616.0,9614.0
1679065861092881,97015.0,101616.0,9622.0
1679065861102881,97010.0,101604.0,9616.0
1679065861112881,97033.0,101585.0,9603.0
1679065861122881,97026.0,101516.0,9613.0
1679065861131881,96996.0,101502.0,9611.0
1679065861141881,96994.0,101521.0,9578.0
1679065861151881,96965.0,101501.0,9573.0
1679065861162881,96954.0,101477.0,9563.0
1679065861171881,96892.0,101457.0,9593.0
1679065861182881,96900.0,101439.0,9589.0
1679065861191881,96884.0,101415.0,9588.0
1679065861203881,96855.0,101392.0,9593.0
1679065861211881,96830.0,101362.0,9579.0
1679065861222881,96783.0,101357.0,9591.0
1679065861231881,96800.0,101336.0,9574.0
1679065861242881,96789.0,101333.0,9566.0
1679065861252881,96783.0,101319.0,9585.0
1679065861262881,96787.0,101302.0,9583.0
1679065861271881,96755.0,101300.0,9584.0
1679065861281881,96764.0,101270.0,9576.0
1679065861292881,96768.0,101289.0,9544.0
1679065861301881,96744.0,101275.0,9560.0
1679065861312881,96764.0,101281.0,9565.0
1679065861322881,96757.0,101264.0,9587.0
1679065861332881,96747.0,101273.0,9580.0
1679065861341881,96751.0,101232.0,9575.0
1679065861352881,96759.0,101230.0,9568.0
1679065861362881,96755.0,101205.0,9575.0
1679065861371881,96768.0,101242.0,9584.0
1679065861381881,96748.0,101270.0,9537.0
1679065861391881,96755.0,101255.0,9543.0
1679065861402881,96740.0,101276.0,9545.0
1679065861411881,96738.0,101240.0,9569.0
1679065861421881,96738.0,101225.0,9565.0
1679065861431881,96731.0,101224.0,9570.0
1679065861442880,96710.0,101223.0,9551.0
1679065861451881,96687.0,101226.0,9566.0
1679065861460881,96669.0,101220.0,9573.0
1679065861470881,96739.0,101226.0,9577.0
1679065861481881,96765.0,101278.0,9587.0
1679065861491881,96843.0,101376.0,9590.0
1679065861501881,96955.0,101513.0,9607.0
1679065861510881,97106.0,101702.0,9610.0
1679065861520881,97268.0,101803.0,9638.0
1679065861531881,97417.0,102008.0,9635.0
1679065861540881,97543.0,102137.0,9652.0
1679065861550881,97656.0,102257.0,9653.0
1679065861560881,97698.0,102328.0,9681.0
1679065861571881,97739.0,102346.0,9689.0
1679065861581881,97696.0,102312.0,9678.0
1679065861590881,97632.0,102246.0,9677.0
1679065861600881,97568.0,102142.0,9656.0
1679065861611881,97512.0,102071.0,9648.0
1679065861620881,97359.0,101983.0,9636.0
1679065861631881,97307.0,101902.0,9635.0
1679065861641881,97229.0,101823.0,9639.0
1679065861651881,97201.0,101729.0,9607.0
1679065861662881,97134.0,101664.0,9578.0
1679065861671881,97069.0,101597.0,9577.0
1679065861681881,96986.0,101496.0,9594.0
1679065861691881,96923.0,101432.0,9588.0
1679065861702881,96883.0,101389.0,9591.0
1679065861711881,96844.0,101390.0,9580.0
1679065861721881,96821.0,101313.0,9574.0
1679065861731881,96836.0,101311.0,9580.0
1679065861741881,96843.0,101381.0,9589.0
1679065861752881,96869.0,101399.0,9580.0
1679065861761881,96894.0,101431.0,9563.0
1679065861771881,96913.0,101494.0,9592.0
1679065861781881,96930.0,101513.0,9599.0
1679065861792881,96981.0,101564.0,9600.0
1679065861801881,97065.0,101621.0,9610.0
1679065861812881,97083.0,101660.0,9606.0
1679065861821881,97085.0,101666.0,9610.0
1679065861832881,97119.0,101634.0,9601.0
1679065861841881,97129.0,101637.0,9608.0
1679065861851881,97116.0,101630.0,9612.0
1679065861862881,97100.0,101668.0,9568.0
1679065861871881,97083.0,101633.0,9599.0
1679065861881881,97061.0,101606.0,9604.0
1679065861891881,97051.0,101584.0,9586.0
1679065861902881,97037.0,101566.0,9590.0
1679065861911881,97002.0,101541.0,9589.0
1679065861921881,96996.0,101493.0,9600.0
1679065861931881,96990.0,101470.0,9569.0
1679065861942881,96974.0,101460.0,9592.0
1679065861951881,96959.0,101461.0,9593.0
1679065861961881,96948.0,101454.0,9588.0
1679065861971881,96936.0,101467.0,9586.0
1679065861982881,96920.0,101479.0,9586.0
1679065861992881,96936.0,101465.0,9585.0
1679065862001881,96924.0,101458.0,9591.0
1679065862011881,96884.0,101459.0,9591.0
1679065862021881,96908.0,101443.0,9552.0
1679065862032881,96886.0,101424.0,9562.0
1679065862041881,96907.0,101439.0,9585.0
1679065862051881,96899.0,101436.0,9593.0
1679065862061881,96891.0,101424.0,9590.0
1679065862072881,96914.0,101417.0,9581.0
1679065862082881,96911.0,101409.0,9588.0
1679065862091881,96903.0,101435.0,9591.0
1679065862101881,96917.0,101419.0,9565.0
1679065862112881,96915.0,101446.0,9584.0
1679065862121881,96876.0,101400.0,9576.0
1679065862131881,96904.0,101434.0,9585.0
1679065862141881,96907.0,101425.0,9582.0
1679065862151881,96898.0,101409.0,9577.0
1679065862161881,96908.0,101398.0,9555.0
1679065862170881,96887.0,101389.0,9563.0
1679065862181881,96889.0,101379.0,9547.0
1679065862191881,96848.0,101391.0,9573.0
1679065862202880,96848.0,101365.0,9571.0
1679065862211881,96851.0,101367.0,9562.0
1679065862221881,96859.0,101386.0,9579.0
1679065862231881,96876.0,101404.0,9574.0
1679065862242880,96925.0,101458.0,9584.0
1679065862251881,97024.0,101569.0,9593.0
1679065862261880,97153.0,101705.0,9604.0
1679065862271880,97328.0,101862.0,9619.0
1679065862281880,97485.0,102081.0,9612.0
1679065862292880,97618.0,102213.0,9622.0
1679065862300880,97737.0,102356.0,9635.0
1679065862311880,97812.0,102432.0,9637.0
1679065862321880,97855.0,102494.0,9670.0
1679065862332880,97846.0,102445.0,9655.0
1679065862340880,97777.0,102382.0,9646.0
1679065862351881,97702.0,102273.0,9621.0
1679065862361881,97586.0,102188.0,9635.0
1679065862372881,97512.0,102054.0,9642.0
1679065862381881,97420.0,101969.0,9627.0
1679065862391881,97339.0,101915.0,9618.0
1679065862401881,97233.0,101834.0,9616.0
1679065862411881,97154.0,101768.0,9608.0
1679065862421881,97092.0,101696.0,9546.0
1679065862430881,97046.0,101627.0,9579.0
1679065862441881,96965.0,101554.0,9568.0
1679065862451881,96913.0,101503.0,9590.0
1679065862461881,96873.0,101467.0,9579.0
1679065862470881,96822.0,101435.0,9564.0
1679065862481881,96855.0,101427.0,9564.0
1679065862491881,96848.0,101436.0,9567.0
1679065862502880,96885.0,101450.0,9565.0
1679065862512880,96906.0,101472.0,9570.0
1679065862521880,96943.0,101496.0,9592.0
1679065862531881,96982.0,101546.0,9584.0
1679065862542881,97018.0,101575.0,9579.0
1679065862551881,97073.0,101642.0,9590.0
1679065862560881,97104.0,101682.0,9586.0
1679065862571881,97131.0,101678.0,9573.0
1679065862581881,97083.0,101712.0,9592.0
1679065862591881,97090.0,101681.0,9602.0
1679065862601881,97073.0,101687.0,9595.0
1679065862613881,97088.0,101687.0,9591.0
1679065862621881,97094.0,101663.0,9589.0
1679065862631881,97073.0,101633.0,9578.0
1679065862640881,97043.0,101630.0,9578.0
1679065862651881,97040.0,101607.0,9579.0
1679065862661881,97009.0,101566.0,9590.0
1679065862671881,97000.0,101554.0,9582.0
1679065862680881,96964.0,101502.0,9581.0
1679065862691881,96941.0,101485.0,9576.0
1679065862701881,96910.0,101451.0,9567.0
1679065862713881,96901.0,101441.0,9565.0
1679065862721881,96876.0,101377.0,9561.0
1679065862730881,96876.0,101443.0,9553.0
1679065862741881,96849.0,101412.0,9555.0
1679065862751881,96828.0,101399.0,9561.0
1679065862760881,96858.0,101387.0,9551.0
1679065862771881,96848.0,101390.0,9510.0
1679065862781881,96833.0,101376.0,9535.0
1679065862791881,96840.0,101366.0,9542.0
1679065862800881,96789.0,101369.0,9565.0
1679065862811881,96806.0,101363.0,9559.0
1679065862821881,96831.0,101354.0,9552.0
1679065862831881,96832.0,101370.0,9560.0
1679065862840881,96840.0,101370.0,9560.0
1679065862851881,96822.0,101372.0,9546.0
1679065862861881,96830.0,101319.0,9564.0
1679065862872881,96816.0,101324.0,9566.0
1679065862880880,96820.0,101322.0,9565.0
1679065862891881,96812.0,101340.0,9562.0
1679065862901881,96806.0,101334.0,9555.0
1679065862911881,96805.0,101329.0,9565.0
1679065862920881,96787.0,101335.0,9559.0
1679065862930881,96760.0,101307.0,9568.0
1679065862941881,96787.0,101266.0,9552.0
1679065862951881,96777.0,101249.0,9557.0
1679065862961881,96774.0,101262.0,9560.0
1679065862970881,96789.0,101287.0,9560.0
1679065862981881,96810.0,101349.0,9564.0
1679065862991881,96861.0,101429.0,9569.0
1679065863001881,96985.0,101558.0,9585.0
1679065863010881,97116.0,101709.0,9580.0
1679065863020881,97276.0,101859.0,9601.0
1679065863031881,97428.0,102042.0,9629.0
1679065863041881,97535.0,102188.0,9643.0
1679065863051881,97670.0,102311.0,9649.0
1679065863061881,97826.0,102372.0,9655.0
1679065863071881,97762.0,102414.0,9659.0
1679065863081881,97777.0,102372.0,9650.0
1679065863090881,97664.0,102290.0,9651.0
1679065863101881,97613.0,102199.0,9641.0
1679065863111881,97533.0,102099.0,9623.0
1679065863121881,97413.0,102031.0,9626.0
1679065863130881,97352.0,101932.0,9616.0
1679065863140881,97256.0,101859.0,9598.0
1679065863151881,97199.0,101789.0,9580.0
1679065863161881,97135.0,101699.0,9592.0
1679065863171881,97069.0,101638.0,9577.0
1679065863180881,97032.0,101532.0,9571.0
1679065863191881,96931.0,101480.0,9564.0
1679065863201881,96886.0,101454.0,9565.0
1679065863211881,96866.0,101402.0,9531.0
1679065863220881,96840.0,101385.0,9515.0
1679065863230881,96818.0,101376.0,9559.0
1679065863241881,96849.0,101397.0,9509.0
1679065863251881,96855.0,101417.0,9531.0
1679065863261881,96882.0,101458.0,9539.0
1679065863270881,96945.0,101438.0,9560.0
1679065863281881,96967.0,101537.0,9581.0
1679065863291881,97011.0,101590.0,9579.0
1679065863300881,97023.0,101580.0,9574.0
1679065863311881,97098.0,101612.0,9589.0
1679065863320881,97119.0,101652.0,9583.0
1679065863331881,97151.0,101709.0,9589.0
1679065863340881,97132.0,101695.0,9590.0
1679065863351881,97133.0,101690.0,9586.0
1679065863361881,97145.0,101650.0,9587.0
1679065863371881,97133.0,101639.0,9591.0
1679065863380881,97097.0,101637.0,9580.0
1679065863391881,97074.0,101631.0,9588.0
1679065863401881,97077.0,101625.0,9576.0
1679065863410881,97064.0,101591.0,9585.0
1679065863420881,97047.0,101584.0,9567.0
1679065863431881,97031.0,101532.0,9571.0
1679065863441881,97010.0,101527.0,9566.0
1679065863450881,96966.0,101528.0,9570.0
1679065863461881,96947.0,101522.0,9577.0
1679065863470881,96936.0,101508.0,9562.0
1679065863480881,97020.0,101489.0,9551.0
1679065863491881,96968.0,101483.0,9525.0
1679065863501881,96935.0,101469.0,9553.0
1679065863510881,96906.0,101480.0,9553.0
1679065863520881,96926.0,101463.0,9559.0
1679065863531881,96918.0,101457.0,9515.0
1679065863541881,96875.0,101461.0,9561.0
1679065863550881,96931.0,101463.0,9558.0
1679065863560881,96922.0,101452.0,9565.0
1679065863571881,96916.0,101464.0,9572.0
1679065863581881,96920.0,101445.0,9560.0
1679065863590881,96934.0,101471.0,9562.0
1679065863600881,96957.0,101454.0,9546.0
1679065863610881,96940.0,101451.0,9532.0
1679065863621881,96950.0,101447.0,9526.0
1679065863630881,96898.0,101461.0,9559.0
1679065863640881,96895.0,101444.0,9563.0
1679065863650881,96911.0,101422.0,9553.0
1679065863661881,96904.0,101398.0,9560.0
1679065863670881,96864.0,101392.0,9557.0
1679065863680881,96857.0,101368.0,9557.0
1679065863690881,96852.0,101357.0,9509.0
1679065863700881,96837.0,101352.0,9527.0
1679065863711881,96824.0,101350.0,9532.0
1679065863722880,96790.0,101349.0,9557.0
1679065863730880,96824.0,101375.0,9590.0
1679065863740880,96887.0,101425.0,9533.0
1679065863751880,96909.0,101537.0,9576.0
1679065863760880,97071.0,101688.0,9575.0
1679065863771880,97233.0,101854.0,9594.0
1679065863780880,97396.0,101984.0,9604.0
1679065863791881,97529.0,102112.0,9635.0
1679065863800881,97672.0,102256.0,9642.0
1679065863810881,97759.0,102394.0,9650.0
1679065863821881,97775.0,102420.0,9650.0
1679065863831881,97775.0,102408.0,9643.0
1679065863840881,97633.0,102291.0,9638.0
1679065863850881,97659.0,102191.0,9636.0
1679065863861881,97584.0,102121.0,9633.0
1679065863871881,97486.0,102057.0,9617.0
1679065863880881,97388.0,101965.0,9612.0
1679065863890881,97326.0,101886.0,9603.0
1679065863900881,97247.0,101814.0,9581.0
1679065863911881,97190.0,101731.0,9574.0
1679065863921881,97102.0,101648.0,9544.0
1679065863930881,97004.0,101589.0,9605.0
1679065863940881,96960.0,101521.0,9527.0
1679065863951881,96909.0,101458.0,9537.0
1679065863960881,96833.0,101418.0,9549.0
1679065863970881,96839.0,101413.0,9544.0
1679065863980881,96848.0,101426.0,9550.0
1679065863991881,96874.0,101405.0,9556.0
1679065864001881,96898.0,101471.0,9556.0
1679065864010881,96946.0,101506.0,9562.0
1679065864022881,97024.0,101558.0,9565.0
1679065864030881,97052.0,101622.0,9577.0
1679065864041881,97068.0,101662.0,9578.0
1679065864050881,97108.0,101723.0,9580.0
1679065864060881,97191.0,101769.0,9587.0
1679065864070881,97223.0,101800.0,9589.0
1679065864081881,97208.0,101776.0,9583.0
1679065864090881,97267.0,101779.0,9595.0
1679065864100881,97257.0,101789.0,9600.0
1679065864110881,97257.0,101793.0,9579.0
1679065864120881,97249.0,101785.0,9574.0
1679065864130881,97241.0,101775.0,9573.0
1679065864140881,97211.0,101757.0,9579.0
1679065864150881,97233.0,101742.0,9583.0
1679065864160881,97193.0,101724.0,9552.0
1679065864170881,97179.0,101735.0,9578.0
1679065864180881,97171.0,101646.0,9580.0
1679065864190881,97160.0,101656.0,9582.0
1679065864201881,97162.0,101644.0,9570.0
1679065864210881,97110.0,101589.0,9570.0
1679065864220881,97099.0,101585.0,9572.0
1679065864230881,97097.0,101576.0,9575.0
1679065864241881,97092.0,101609.0,9575.0
1679065864250881,97073.0,101586.0,9560.0
1679065864260881,97074.0,101569.0,9564.0
1679065864270881,97084.0,101555.0,9564.0
1679065864281880,97066.0,101559.0,9581.0
1679065864290881,97049.0,101566.0,9568.0
1679065864300881,97031.0,101572.0,9573.0
1679065864310881,97044.0,101571.0,9564.0
1679065864321880,97042.0,101558.0,9571.0
1679065864330881,97042.0,101551.0,9557.0
1679065864339881,97030.0,101504.0,9572.0
1679065864350881,97036.0,101575.0,9563.0
1679065864360881,97016.0,101544.0,9563.0
1679065864370881,97022.0,101545.0,9565.0
1679065864380881,97011.0,101517.0,9543.0
1679065864390881,96961.0,101498.0,9565.0
1679065864400881,96965.0,101491.0,9567.0
1679065864410881,96930.0,101490.0,9565.0
1679065864420881,96948.0,101481.0,9549.0
1679065864429881,96952.0,101470.0,9550.0
1679065864440881,96933.0,101473.0,9567.0
1679065864450881,96930.0,101465.0,9547.0
1679065864461881,96966.0,101512.0,9555.0
1679065864469880,97027.0,101598.0,9555.0
1679065864480880,97126.0,101720.0,9594.0
1679065864490880,97254.0,101851.0,9591.0
1679065864500880,97399.0,102004.0,9610.0
1679065864510881,97561.0,102153.0,9613.0
1679065864520881,97673.0,102270.0,9618.0
1679065864530881,97739.0,102424.0,9637.0
1679065864540881,97836.0,102483.0,9648.0
1679065864550881,97879.0,102502.0,9647.0
1679065864560881,97860.0,102423.0,9654.0
1679065864570881,97785.0,102365.0,9651.0
1679065864580881,97701.0,102289.0,9642.0
1679065864589881,97617.0,102173.0,9611.0
1679065864600881,97526.0,102072.0,9582.0
1679065864610881,97432.0,101996.0,9561.0
1679065864620881,97331.0,101914.0,9565.0
1679065864629881,97259.0,101819.0,9571.0
1679065864640881,97188.0,101739.0,9541.0
1679065864650881,97112.0,101672.0,9549.0
1679065864660881,97023.0,101593.0,9530.0
1679065864669881,96944.0,101524.0,9542.0
1679065864680881,96888.0,101463.0,9563.0
1679065864690881,96820.0,101431.0,9548.0
1679065864701881,96799.0,101407.0,9547.0
1679065864710881,96805.0,101395.0,9542.0
1679065864720881,96820.0,101387.0,9542.0
1679065864730881,96829.0,101403.0,9541.0
1679065864740881,96867.0,101435.0,9548.0
1679065864750881,96892.0,101461.0,9548.0
1679065864759881,96897.0,101524.0,9554.0
1679065864770881,96946.0,101563.0,9572.0
1679065864780881,96986.0,101609.0,9555.0
1679065864790881,97044.0,101642.0,9554.0
1679065864799881,97069.0,101659.0,9561.0
1679065864810881,97073.0,101676.0,9571.0
1679065864820881,97080.0,101640.0,9575.0
1679065864830881,97077.0,101636.0,9577.0
1679065864839881,97020.0,101618.0,9577.0
1679065864850881,97043.0,101597.0,9568.0
1679065864860881,97055.0,101612.0,9567.0
1679065864871881,97019.0,101587.0,9564.0
1679065864879881,97016.0,101536.0,9560.0
1679065864889881,96992.0,101552.0,9547.0
1679065864900881,96992.0,101523.0,9529.0
1679065864910881,96960.0,101528.0,9527.0
1679065864920881,96918.0,101490.0,9550.0
1679065864929881,96924.0,101466.0,9545.0
1679065864940881,96918.0,101471.0,9554.0
1679065864950881,96898.0,101430.0,9552.0
1679065864961881,96893.0,101413.0,9554.0
1679065864969880,96889.0,101416.0,9548.0
1679065864979880,96869.0,101429.0,9535.0
1679065864990880,96874.0,101428.0,9531.0
1679065865000880,96877.0,101414.0,9530.0
1679065865009880,96886.0,101421.0,9518.0
1679065865019880,96887.0,101424.0,9512.0
1679065865030880,96887.0,101434.0,9519.0
1679065865040880,96902.0,101434.0,9535.0
1679065865050881,96881.0,101435.0,9521.0
1679065865059881,96870.0,101414.0,9552.0
1679065865070881,96884.0,101434.0,9546.0
1679065865080881,96886.0,101390.0,9553.0
1679065865089881,96890.0,101410.0,9541.0
1679065865100881,96888.0,101435.0,9512.0
1679065865109881,96890.0,101432.0,9507.0
1679065865120881,96845.0,101434.0,9540.0
1679065865129881,96843.0,101414.0,9552.0
1679065865140881,96837.0,101417.0,9500.0
1679065865149881,96865.0,101409.0,9512.0
1679065865160881,96849.0,101407.0,9525.0
1679065865169881,96826.0,101377.0,9550.0
1679065865180881,96818.0,101407.0,9552.0
1679065865189881,96795.0,101405.0,9553.0
1679065865200881,96850.0,101444.0,9561.0
1679065865210881,96918.0,101517.0,9551.0
1679065865220881,97048.0,101579.0,9568.0
1679065865231881,97177.0,101739.0,9583.0
1679065865240881,97337.0,101964.0,9619.0
1679065865250881,97494.0,102138.0,9623.0
1679065865259881,97645.0,102287.0,9629.0
1679065865270881,97774.0,102412.0,9641.0
1679065865280881,97846.0,102445.0,9657.0
1679065865290881,97876.0,102537.0,9664.0
1679065865299881,97882.0,102506.0,9649.0
1679065865309881,97815.0,102432.0,9651.0
1679065865320881,97734.0,102310.0,9608.0
1679065865329881,97624.0,102217.0,9604.0
1679065865339881,97534.0,102120.0,9589.0
1679065865349881,97430.0,102043.0,9608.0
1679065865360881,97347.0,101950.0,9593.0
1679065865369881,97265.0,101864.0,9573.0
1679065865379881,97185.0,101763.0,9559.0
1679065865389881,97103.0,101693.0,9548.0
1679065865400881,97032.0,101639.0,9530.0
1679065865410881,96943.0,101549.0,9527.0
1679065865419881,96889.0,101475.0,9532.0
1679065865429881,96855.0,101440.0,9545.0
1679065865440881,96813.0,101363.0,9542.0
1679065865450881,96806.0,101402.0,9537.0
1679065865460881,96798.0,101422.0,9548.0
1679065865469881,96828.0,101394.0,9543.0
1679065865479881,96853.0,101446.0,9554.0
1679065865490881,96899.0,101477.0,9525.0
1679065865500881,96942.0,101543.0,9515.0
1679065865509881,96973.0,101578.0,9512.0
1679065865519881,96995.0,101620.0,9553.0
1679065865530881,97039.0,101661.0,9570.0
1679065865540881,97042.0,101691.0,9574.0
1679065865549881,97116.0,101743.0,9571.0
1679065865559881,97081.0,101719.0,9578.0
1679065865570881,97099.0,101745.0,9558.0
1679065865580881,97121.0,101691.0,9559.0
1679065865589881,97096.0,101687.0,9561.0
1679065865599881,97092.0,101623.0,9568.0
1679065865609881,97088.0,101660.0,9533.0
1679065865620881,97020.0,101666.0,9563.0
1679065865629881,97017.0,101637.0,9572.0
1679065865639881,97019.0,101556.0,9565.0
1679065865649881,97027.0,101601.0,9559.0
1679065865660881,96990.0,101591.0,9554.0
1679065865669881,96993.0,101529.0,9558.0
1679065865680881,96973.0,101536.0,9560.0
1679065865689881,96951.0,101532.0,9555.0
1679065865700881,96948.0,101529.0,9557.0
1679065865710881,96944.0,101518.0,9554.0
1679065865719881,96942.0,101534.0,9541.0
1679065865729881,96925.0,101529.0,9555.0
1679065865739881,96896.0,101522.0,9564.0
1679065865750881,96926.0,101502.0,9524.0
1679065865759881,96869.0,101513.0,9558.0
1679065865770881,96894.0,101512.0,9549.0
1679065865779881,96902.0,101508.0,9553.0
1679065865789881,96917.0,101457.0,9555.0
1679065865799881,96919.0,101491.0,9535.0
1679065865809881,96920.0,101487.0,9534.0
1679065865820881,96919.0,101508.0,9540.0
1679065865830881,96923.0,101432.0,9552.0
1679065865839881,96912.0,101453.0,9552.0
1679065865849881,96919.0,101504.0,9555.0
1679065865860881,96909.0,101478.0,9545.0
1679065865869881,96912.0,101449.0,9544.0
1679065865879881,96912.0,101443.0,9535.0
1679065865889881,96909.0,101435.0,9545.0
1679065865899881,96893.0,101465.0,9550.0
1679065865910881,96869.0,101454.0,9549.0
1679065865919881,96871.0,101424.0,9498.0
1679065865929881,96877.0,101437.0,9505.0
1679065865940881,96860.0,101439.0,9535.0
1679065865950881,96842.0,101438.0,9544.0
1679065865960881,96881.0,101438.0,9541.0
1679065865969881,96934.0,101524.0,9555.0
1679065865979881,97035.0,101594.0,9566.0
1679065865989881,97145.0,101767.0,9579.0
1679065866000881,97291.0,101974.0,9591.0
1679065866009881,97446.0,102091.0,9603.0
1679065866019881,97599.0,102251.0,9618.0
1679065866029881,97733.0,102372.0,9641.0
1679065866040881,97837.0,102495.0,9651.0
1679065866049881,97888.0,102553.0,9653.0
1679065866059881,97873.0,102560.0,9646.0
1679065866069881,97841.0,102460.0,9644.0
1679065866080881,97755.0,102382.0,9650.0
1679065866089881,97667.0,102298.0,9633.0
1679065866099881,97548.0,102186.0,9613.0
1679065866109881,97481.0,102089.0,9603.0
1679065866119881,97377.0,101995.0,9598.0
1679065866129881,97298.0,101915.0,9580.0
1679065866139881,97207.0,101829.0,9558.0
1679065866149881,97094.0,101745.0,9528.0
1679065866159881,97034.0,101673.0,9532.0
1679065866169881,96962.0,101599.0,9541.0
1679065866179881,96881.0,101546.0,9550.0
1679065866189881,96872.0,101520.0,9544.0
1679065866199881,96828.0,101450.0,9548.0
1679065866210881,96820.0,101390.0,9530.0
1679065866219881,96806.0,101428.0,9536.0
1679065866229881,96824.0,101442.0,9537.0
1679065866239881,96848.0,101452.0,9514.0
1679065866250881,96879.0,101509.0,9527.0
1679065866259881,96898.0,101530.0,9547.0
1679065866268881,96936.0,101571.0,9559.0
1679065866279881,96989.0,101623.0,9538.0
1679065866289881,97029.0,101652.0,9558.0
1679065866299881,97052.0,101673.0,9535.0
1679065866309881,97064.0,101717.0,9537.0
1679065866319881,97069.0,101705.0,9536.0
1679065866329881,97070.0,101706.0,9560.0
1679065866339881,97053.0,101688.0,9574.0
1679065866349881,97035.0,101665.0,9558.0
1679065866359881,97006.0,101521.0,9543.0
1679065866369881,96989.0,101619.0,9559.0
1679065866378881,96959.0,101584.0,9559.0
1679065866389881,96923.0,101604.0,9546.0
1679065866399881,96932.0,101505.0,9541.0
1679065866410881,96895.0,101481.0,9551.0
1679065866419881,96870.0,101437.0,9542.0
1679065866429881,96862.0,101436.0,9548.0
1679065866440881,96860.0,101424.0,9536.0
1679065866450881,96816.0,101430.0,9537.0
1679065866459881,96817.0,101419.0,9540.0
1679065866468881,96803.0,101432.0,9533.0
1679065866479881,96808.0,101402.0,9511.0
1679065866489881,96774.0,101399.0,9532.0
1679065866500881,96758.0,101396.0,9540.0
1679065866509881,96773.0,101408.0,9554.0
1679065866519881,96766.0,101383.0,9536.0
1679065866529881,96768.0,101391.0,9533.0
1679065866541881,96776.0,101401.0,9526.0
1679065866549881,96782.0,101397.0,9552.0
1679065866559881,96726.0,101381.0,9538.0
1679065866569881,96748.0,101386.0,9535.0
1679065866579881,96798.0,101395.0,9540.0
1679065866589881,96785.0,101397.0,9536.0
1679065866599881,96788.0,101351.0,9539.0
1679065866609881,96780.0,101381.0,9537.0
1679065866619881,96785.0,101376.0,9541.0
1679065866629881,96767.0,101375.0,9544.0
1679065866639881,96786.0,101377.0,9543.0
1679065866649881,96777.0,101364.0,9543.0
1679065866659881,96763.0,101305.0,9535.0
1679065866669881,96740.0,101339.0,9533.0
1679065866679881,96736.0,101347.0,9527.0
1679065866689881,96714.0,101319.0,9540.0
1679065866699881,96703.0,101323.0,9519.0
1679065866709881,96695.0,101312.0,9526.0
1679065866719881,96727.0,101350.0,9532.0
1679065866729881,96778.0,101331.0,9549.0
1679065866739881,96876.0,101476.0,9555.0
1679065866749881,96994.0,101642.0,9558.0
1679065866759881,97163.0,101803.0,9586.0
1679065866769881,97319.0,101983.0,9602.0
1679065866778881,97437.0,102150.0,9612.0
1679065866789881,97590.0,102274.0,9610.0
1679065866798881,97668.0,102348.0,9610.0
1679065866809881,97710.0,102382.0,9597.0
1679065866818881,97694.0,102370.0,9600.0
1679065866829881,97650.0,102307.0,9583.0
1679065866838881,97539.0,102206.0,9593.0
1679065866849881,97459.0,102109.0,9586.0
1679065866859881,97384.0,102026.0,9591.0
1679065866869881,97269.0,101961.0,9580.0
1679065866878881,97220.0,101880.0,9576.0
1679065866889881,97151.0,101807.0,9563.0
1679065866899881,97084.0,101752.0,9563.0
1679065866909881,97012.0,101617.0,9560.0
1679065866919881,96943.0,101547.0,9554.0
1679065866929881,96869.0,101496.0,9553.0
1679065866939881,96829.0,101452.0,9543.0
1679065866949881,96788.0,101436.0,9539.0
1679065866959881,96773.0,101376.0,9532.0
1679065866969881,96772.0,101372.0,9534.0
1679065866979881,96792.0,101386.0,9544.0
1679065866988881,96818.0,101443.0,9538.0
1679065866999881,96858.0,101471.0,9532.0
1679065867008881,96899.0,101511.0,9539.0
1679065867019881,96926.0,101569.0,9552.0
1679065867029881,96941.0,101619.0,9560.0
1679065867040881,96993.0,101684.0,9573.0
1679065867048881,97058.0,101642.0,9561.0
1679065867059881,97098.0,101712.0,9571.0
1679065867069881,97098.0,101749.0,9566.0
1679065867079881,97109.0,101759.0,9533.0
1679065867088881,97110.0,101748.0,9537.0
1679065867098881,97071.0,101732.0,9555.0
1679065867109881,97055.0,101708.0,9557.0
1679065867119881,97047.0,101693.0,9559.0
1679065867128881,97042.0,101683.0,9560.0
1679065867138881,97009.0,101635.0,9561.0
1679065867149881,97001.0,101622.0,9560.0
1679065867159881,96927.0,101611.0,9557.0
1679065867169880,96917.0,101580.0,9540.0
1679065867178881,96927.0,101553.0,9556.0
1679065867189880,96920.0,101569.0,9553.0
1679065867199880,96911.0,101524.0,9540.0
1679065867209881,96894.0,101513.0,9550.0
1679065867218881,96868.0,101472.0,9540.0
1679065867228881,96847.0,101491.0,9543.0
1679065867239881,96881.0,101481.0,9519.0
1679065867249881,96864.0,101469.0,9533.0
1679065867258881,96858.0,101471.0,9570.0
1679065867268881,96854.0,101468.0,9538.0
1679065867279881,96850.0,101447.0,9558.0
1679065867289881,96840.0,101446.0,9537.0
1679065867298881,96841.0,101450.0,9537.0
1679065867308881,96834.0,101427.0,9527.0
1679065867319881,96858.0,101443.0,9532.0
1679065867329881,96859.0,101436.0,9539.0
1679065867338881,96859.0,101437.0,9545.0
1679065867348881,96859.0,101454.0,9550.0
1679065867359881,96856.0,101448.0,9546.0
1679065867369881,96869.0,101431.0,9536.0
1679065867378881,96858.0,101440.0,9543.0
1679065867388881,96873.0,101419.0,9540.0
1679065867398881,96866.0,101413.0,9539.0
1679065867409881,96866.0,101457.0,9512.0
1679065867419881,96833.0,101470.0,9539.0
1679065867429881,96854.0,101472.0,9539.0
1679065867438881,96857.0,101466.0,9528.0
1679065867449881,96875.0,101474.0,9548.0
1679065867459881,96866.0,101441.0,9548.0
1679065867469881,96956.0,101550.0,9559.0
1679065867478881,97061.0,101708.0,9565.0
1679065867489881,97184.0,101856.0,9581.0
1679065867499881,97350.0,102032.0,9590.0
1679065867508881,97512.0,102208.0,9618.0
1679065867518881,97659.0,102346.0,9627.0
1679065867528881,97780.0,102473.0,9634.0
1679065867539881,97876.0,102550.0,9629.0
1679065867548881,97908.0,102600.0,9629.0
1679065867558881,97849.0,102584.0,9659.0
1679065867568881,97842.0,102520.0,9647.0
1679065867579881,97777.0,102413.0,9628.0
1679065867588881,97650.0,102317.0,9625.0
1679065867598881,97581.0,102203.0,9608.0
1679065867608881,97492.0,102135.0,9606.0
1679065867619881,97405.0,102045.0,9601.0
1679065867628881,97337.0,101982.0,9587.0
1679065867638881,97283.0,101916.0,9585.0
1679065867648881,97200.0,101839.0,9564.0
1679065867659881,97128.0,101777.0,9569.0
1679065867669880,97066.0,101705.0,9554.0
1679065867678881,97010.0,101654.0,9510.0
1679065867688881,96968.0,101597.0,9507.0
1679065867698881,96942.0,101577.0,9512.0
1679065867709880,96936.0,101562.0,9497.0
1679065867718881,96905.0,101563.0,9524.0
1679065867728881,96932.0,101581.0,9532.0
1679065867738880,96941.0,101601.0,9555.0
1679065867749881,96974.0,101645.0,9552.0
1679065867758881,97041.0,101692.0,9526.0
1679065867768881,97021.0,101725.0,9560.0
1679065867778881,97090.0,101764.0,9561.0
1679065867789881,97125.0,101801.0,9563.0
1679065867798881,97160.0,101800.0,9582.0
1679065867808881,97158.0,101817.0,9565.0
1679065867818881,97175.0,101837.0,9561.0
1679065867828881,97165.0,101809.0,9543.0
1679065867838881,97115.0,101805.0,9570.0
1679065867849881,97081.0,101788.0,9565.0
1679065867858881,97089.0,101810.0,9558.0
1679065867868881,97089.0,101751.0,9531.0
1679065867878881,97062.0,101721.0,9522.0
1679065867888881,97044.0,101690.0,9549.0
1679065867898881,97023.0,101677.0,9549.0
1679065867908881,97007.0,101656.0,9544.0
1679065867919880,96967.0,101613.0,9550.0
1679065867928881,96936.0,101580.0,9544.0
1679065867939881,96928.0,101570.0,9535.0
1679065867949881,96908.0,101567.0,9542.0
1679065867959881,96906.0,101543.0,9534.0
1679065867968881,96899.0,101554.0,9533.0
1679065867978881,96887.0,101526.0,9466.0
1679065867989881,96858.0,101527.0,9523.0
1679065867998881,96853.0,101546.0,9530.0
1679065868008881,96879.0,101520.0,9536.0
1679065868018881,96872.0,101514.0,9541.0
1679065868029881,96884.0,101531.0,9544.0
1679065868038881,96889.0,101511.0,9537.0
1679065868050881,96873.0,101510.0,9542.0
1679065868058881,96881.0,101479.0,9529.0
1679065868068881,96876.0,101532.0,9534.0
1679065868078881,96884.0,101496.0,9544.0
1679065868088881,96876.0,101494.0,9535.0
1679065868098881,96868.0,101476.0,9533.0
1679065868109881,96885.0,101464.0,9532.0
1679065868119881,96878.0,101435.0,9534.0
1679065868128881,96871.0,101485.0,9529.0
1679065868138881,96823.0,101474.0,9538.0
1679065868148881,96808.0,101481.0,9533.0
1679065868158881,96818.0,101482.0,9560.0
1679065868169881,96858.0,101468.0,9536.0
1679065868177881,96849.0,101463.0,9516.0
1679065868188881,96856.0,101452.0,9508.0
1679065868198881,96811.0,101466.0,9518.0
1679065868209880,96834.0,101476.0,9523.0
1679065868217880,96862.0,101536.0,9508.0
1679065868228880,96994.0,101668.0,9544.0
1679065868238880,97105.0,101817.0,9564.0
1679065868249880,97255.0,101986.0,9594.0
1679065868257880,97431.0,102105.0,9602.0
1679065868268880,97570.0,102317.0,9616.0
1679065868278880,97696.0,102415.0,9629.0
1679065868289881,97783.0,102526.0,9644.0
1679065868298881,97850.0,102588.0,9639.0
1679065868308881,97855.0,102572.0,9607.0
1679065868318881,97790.0,102516.0,9630.0
1679065868328881,97716.0,102412.0,9621.0
1679065868337881,97624.0,102276.0,9645.0
1679065868348881,97523.0,102234.0,9599.0
1679065868358881,97441.0,102146.0,9591.0
1679065868368881,97326.0,102054.0,9582.0
1679065868378881,97260.0,101981.0,9584.0
1679065868388881,97209.0,101898.0,9563.0
1679065868398881,97137.0,101840.0,9537.0
1679065868409881,97074.0,101711.0,9544.0
1679065868418881,97014.0,101617.0,9541.0
1679065868427881,96942.0,101568.0,9553.0
1679065868438881,96896.0,101570.0,9520.0
1679065868448881,96870.0,101515.0,9520.0
1679065868458881,96847.0,101504.0,9525.0
1679065868468881,96842.0,101510.0,9527.0
1679065868478881,96863.0,101532.0,9535.0
1679065868488881,96897.0,101563.0,9527.0
1679065868498881,96932.0,101597.0,9528.0
1679065868507881,96958.0,101636.0,9551.0
1679065868518881,96990.0,101687.0,9558.0
1679065868528881,97036.0,101712.0,9549.0
1679065868538881,97079.0,101764.0,9563.0
1679065868548881,97108.0,101793.0,9560.0
1679065868558881,97126.0,101809.0,9549.0
1679065868568881,97101.0,101808.0,9562.0
1679065868578881,97122.0,101806.0,9561.0
1679065868588881,97117.0,101791.0,9532.0
1679065868597881,97085.0,101780.0,9531.0
1679065868608881,97073.0,101751.0,9536.0
1679065868618881,97040.0,101726.0,9558.0
1679065868628881,97035.0,101704.0,9554.0
1679065868637881,96980.0,101710.0,9555.0
1679065868648881,96980.0,101677.0,9542.0
1679065868658881,96970.0,101654.0,9533.0
1679065868669881,96966.0,101634.0,9553.0
1679065868677881,96936.0,101573.0,9530.0
1679065868688881,96925.0,101572.0,9530.0
1679065868698881,96919.0,101503.0,9549.0
1679065868708881,96868.0,101563.0,9538.0
1679065868718881,96834.0,101541.0,9543.0
1679065868727881,96808.0,101519.0,9539.0
1679065868738880,96827.0,101545.0,9538.0
1679065868748880,96825.0,101519.0,9515.0
1679065868758880,96850.0,101524.0,9526.0
1679065868767881,96844.0,101509.0,9539.0
1679065868778880,96811.0,101497.0,9537.0
1679065868788880,96787.0,101507.0,9525.0
1679065868798880,96818.0,101499.0,9523.0
1679065868807881,96830.0,101475.0,9522.0
1679065868818880,96824.0,101481.0,9527.0
1679065868828881,96811.0,101463.0,9522.0
1679065868838881,96798.0,101441.0,9526.0
1679065868848881,96796.0,101453.0,9525.0
1679065868857881,96788.0,101447.0,9506.0
1679065868868881,96792.0,101414.0,9534.0
1679065868878881,96786.0,101418.0,9496.0
1679065868888881,96749.0,101417.0,9522.0
1679065868897881,96713.0,101409.0,9525.0
1679065868908881,96710.0,101399.0,9530.0
1679065868918881,96731.0,101380.0,9516.0
1679065868928881,96719.0,101386.0,9525.0
1679065868937881,96695.0,101356.0,9521.0
1679065868948881,96685.0,101353.0,9512.0
1679065868958881,96687.0,101277.0,9508.0
1679065868968881,96685.0,101333.0,9509.0
1679065868977881,96701.0,101329.0,9514.0
1679065868988880,96742.0,101387.0,9513.0
1679065868998880,96810.0,101454.0,9521.0
1679065869008881,96936.0,101605.0,9549.0
1679065869018881,97080.0,101739.0,9562.0
1679065869027881,97254.0,101966.0,9575.0
1679065869038881,97356.0,102138.0,9592.0
1679065869047881,97467.0,102262.0,9608.0
1679065869058881,97572.0,102372.0,9614.0
1679065869067881,97671.0,102411.0,9612.0
1679065869078881,97629.0,102415.0,9620.0
1679065869087881,97590.0,102360.0,9613.0
1679065869098881,97536.0,102254.0,9597.0
1679065869108881,97446.0,102147.0,9577.0
1679065869118881,97343.0,102010.0,9570.0
1679065869128881,97243.0,101929.0,9561.0
1679065869138881,97158.0,101877.0,9559.0
1679065869148881,97079.0,101778.0,9552.0
1679065869158881,97015.0,101709.0,9544.0
1679065869168881,96951.0,101676.0,9525.0
1679065869178881,96862.0,101560.0,9534.0
1679065869188881,96797.0,101488.0,9517.0
1679065869197881,96746.0,101429.0,9521.0
1679065869208881,96677.0,101378.0,9515.0
1679065869217881,96612.0,101326.0,9515.0
1679065869228881,96599.0,101335.0,9507.0
1679065869238881,96608.0,101335.0,9504.0
1679065869248881,96646.0,101327.0,9503.0
1679065869259881,96685.0,101339.0,9510.0
1679065869268881,96712.0,101375.0,9535.0
1679065869277881,96742.0,101417.0,9519.0
1679065869288881,96778.0,101449.0,9523.0
1679065869297881,96821.0,101460.0,9528.0
1679065869307881,96859.0,101541.0,9516.0
1679065869318881,96888.0,101575.0,9495.0
1679065869327881,96908.0,101601.0,9502.0
1679065869337881,96899.0,101605.0,9506.0
1679065869347881,96896.0,101589.0,9532.0
1679065869360881,96872.0,101610.0,9534.0
1679065869368881,96884.0,101568.0,9534.0
1679065869378881,96859.0,101576.0,9520.0
1679065869387881,96863.0,101482.0,9526.0
1679065869398881,96850.0,101468.0,9534.0
1679065869408881,96814.0,101456.0,9525.0
1679065869417881,96795.0,101481.0,9514.0
1679065869427881,96780.0,101449.0,9480.0
1679065869437881,96713.0,101430.0,9510.0
1679065869448881,96709.0,101409.0,9512.0
1679065869458881,96686.0,101393.0,9519.0
1679065869467881,96689.0,101393.0,9511.0
1679065869477881,96708.0,101379.0,9470.0
1679065869488881,96678.0,101372.0,9496.0
1679065869497881,96658.0,101355.0,9509.0
1679065869507881,96660.0,101340.0,9512.0
1679065869517881,96654.0,101357.0,9508.0
1679065869528881,96675.0,101373.0,9502.0
1679065869538881,96688.0,101370.0,9507.0
1679065869547881,96698.0,101318.0,9512.0
1679065869557881,96685.0,101346.0,9516.0
1679065869567881,96710.0,101349.0,9493.0
1679065869578881,96701.0,101356.0,9514.0
1679065869587881,96681.0,101366.0,9509.0
1679065869597881,96671.0,101377.0,9522.0
1679065869607881,96726.0,101334.0,9512.0
1679065869618881,96717.0,101318.0,9507.0
1679065869628881,96724.0,101307.0,9510.0
1679065869637881,96721.0,101377.0,9515.0
1679065869647881,96735.0,101368.0,9522.0
1679065869657881,96741.0,101359.0,9507.0
1679065869668881,96723.0,101366.0,9491.0
1679065869677881,96665.0,101356.0,9514.0
1679065869687881,96668.0,101347.0,9510.0
1679065869697881,96701.0,101341.0,9509.0
1679065869708881,96689.0,101331.0,9510.0
1679065869717881,96674.0,101308.0,9509.0
1679065869728881,96675.0,101310.0,9496.0
1679065869737881,96671.0,101279.0,9500.0
1679065869747881,96684.0,101322.0,9506.0
1679065869757881,96731.0,101367.0,9479.0
1679065869768881,96786.0,101436.0,9490.0
1679065869777881,96884.0,101571.0,9530.0
1679065869787881,96976.0,101707.0,9546.0
1679065869797881,97133.0,101879.0,9564.0
1679065869807881,97268.0,102048.0,9564.0
1679065869818881,97430.0,102171.0,9578.0
1679065869827881,97541.0,102257.0,9596.0
1679065869837881,97601.0,102294.0,9594.0
1679065869847881,97605.0,102283.0,9603.0
1679065869858881,97576.0,102233.0,9602.0
1679065869867881,97500.0,102157.0,9578.0
1679065869878881,97403.0,102084.0,9587.0
1679065869887881,97309.0,101979.0,9559.0
1679065869897881,97205.0,101907.0,9549.0
1679065869907881,97129.0,101786.0,9541.0
1679065869917881,97050.0,101689.0,9548.0
1679065869927881,96983.0,101634.0,9502.0
1679065869937881,96908.0,101571.0,9493.0
1679065869948881,96821.0,101494.0,9467.0
1679065869957881,96731.0,101418.0,9487.0
1679065869967881,96669.0,101327.0,9495.0
1679065869977881,96584.0,101313.0,9504.0
1679065869988880,96604.0,101287.0,9491.0
1679065869997881,96598.0,101219.0,9495.0
1679065870007881,96584.0,101273.0,9496.0
1679065870017881,96594.0,101258.0,9498.0
1679065870028880,96626.0,101293.0,9504.0
1679065870038880,96657.0,101320.0,9495.0
1679065870046880,96673.0,101341.0,9468.0
1679065870057880,96677.0,101402.0,9507.0
1679065870067880,96706.0,101424.0,9499.0
1679065870078880,96757.0,101446.0,9509.0
1679065870086881,96741.0,101471.0,9522.0
1679065870097881,96782.0,101513.0,9522.0
1679065870107881,96822.0,101488.0,9517.0
1679065870118881,96831.0,101501.0,9524.0
1679065870128881,96817.0,101500.0,9519.0
1679065870136880,96814.0,101480.0,9514.0
1679065870147880,96783.0,101458.0,9497.0
1679065870157880,96729.0,101432.0,9516.0
1679065870168880,96727.0,101420.0,9511.0
1679065870176880,96716.0,101406.0,9477.0
1679065870187880,96698.0,101356.0,9481.0
1679065870197880,96657.0,101341.0,9497.0
1679065870208880,96663.0,101329.0,9506.0
1679065870216880,96643.0,101302.0,9492.0
1679065870227880,96625.0,101305.0,9481.0
1679065870237880,96616.0,101209.0,9485.0
1679065870248880,96615.0,101204.0,9484.0
1679065870256880,96606.0,101194.0,9487.0
1679065870267881,96590.0,101207.0,9492.0
1679065870277881,96617.0,101239.0,9500.0
1679065870287881,96572.0,101230.0,9488.0
1679065870297881,96595.0,101242.0,9469.0
1679065870306881,96572.0,101241.0,9499.0
1679065870317881,96570.0,101246.0,9497.0
1679065870327881,96552.0,101253.0,9494.0
1679065870337881,96578.0,101263.0,9497.0
1679065870347881,96580.0,101252.0,9495.0
1679065870357881,96619.0,101217.0,9495.0
1679065870367881,96622.0,101226.0,9491.0
1679065870378881,96615.0,101260.0,9465.0
1679065870386880,96626.0,101248.0,9487.0
1679065870397880,96636.0,101223.0,9489.0
1679065870407880,96647.0,101225.0,9495.0
1679065870417880,96645.0,101270.0,9481.0
1679065870427880,96650.0,101264.0,9474.0
1679065870436880,96651.0,101270.0,9476.0
1679065870447881,96616.0,101261.0,9493.0
1679065870457881,96607.0,101279.0,9503.0
1679065870468881,96649.0,101259.0,9499.0
1679065870477881,96664.0,101237.0,9491.0
1679065870487881,96664.0,101297.0,9503.0
1679065870497881,96689.0,101294.0,9491.0
1679065870506881,96742.0,101385.0,9486.0
1679065870517881,96833.0,101504.0,9491.0
1679065870527881,96955.0,101633.0,9531.0
1679065870537881,97099.0,101825.0,9547.0
1679065870546881,97280.0,101981.0,9551.0
1679065870557881,97412.0,102131.0,9585.0
1679065870568881,97546.0,102263.0,9588.0
1679065870577881,97623.0,102342.0,9587.0
1679065870586881,97674.0,102403.0,9598.0
1679065870597881,97694.0,102391.0,9603.0
1679065870607881,97646.0,102318.0,9606.0
1679065870617881,97580.0,102231.0,9585.0
1679065870627881,97503.0,102135.0,9573.0
1679065870636881,97419.0,102021.0,9582.0
1679065870647881,97350.0,101978.0,9534.0
1679065870657881,97270.0,101903.0,9525.0
1679065870668881,97197.0,101845.0,9498.0
1679065870676880,97107.0,101759.0,9531.0
1679065870687880,97041.0,101696.0,9523.0
1679065870697880,96976.0,101614.0,9514.0
1679065870707880,96913.0,101552.0,9521.0
1679065870716880,96840.0,101465.0,9523.0
1679065870727880,96828.0,101440.0,9505.0
1679065870737880,96788.0,101398.0,9499.0
1679065870747880,96795.0,101391.0,9497.0
1679065870756880,96808.0,101402.0,9502.0
1679065870769880,96813.0,101423.0,9509.0
1679065870777880,96851.0,101474.0,9507.0
1679065870787880,96871.0,101522.0,9512.0
1679065870796880,96938.0,101538.0,9524.0
1679065870807881,96980.0,101581.0,9533.0
1679065870817881,97003.0,101633.0,9524.0
1679065870827881,97056.0,101706.0,9510.0
1679065870836881,97073.0,101730.0,9518.0
1679065870846881,97075.0,101753.0,9532.0
1679065870857881,97093.0,101750.0,9539.0
1679065870867881,97080.0,101759.0,9530.0
1679065870877881,97072.0,101767.0,9541.0
1679065870886881,97099.0,101731.0,9513.0
1679065870897881,97069.0,101717.0,9522.0
1679065870907881,97039.0,101699.0,9526.0
1679065870917881,97017.0,101680.0,9541.0
1679065870926881,97001.0,101673.0,9533.0
1679065870937881,97014.0,101658.0,9522.0
1679065870947881,97007.0,101645.0,9518.0
1679065870957881,96992.0,101649.0,9511.0
1679065870966881,96975.0,101597.0,9518.0
1679065870977881,96944.0,101568.0,9517.0
1679065870987881,96957.0,101579.0,9515.0
1679065870997881,96935.0,101543.0,9526.0
1679065871006881,96912.0,101542.0,9514.0
1679065871016881,96906.0,101512.0,9504.0
1679065871027881,96894.0,101521.0,9502.0
1679065871036881,96888.0,101498.0,9486.0
1679065871046881,96888.0,101500.0,9470.0
1679065871056881,96855.0,101491.0,9493.0
1679065871067881,96844.0,101481.0,9505.0
1679065871076881,96835.0,101509.0,9523.0
1679065871086881,96869.0,101488.0,9475.0
1679065871096881,96851.0,101477.0,9490.0
1679065871107881,96852.0,101479.0,9509.0
1679065871117881,96847.0,101465.0,9516.0
1679065871127881,96845.0,101462.0,9513.0
1679065871136881,96827.0,101450.0,9503.0
1679065871147881,96817.0,101442.0,9495.0
1679065871157881,96802.0,101416.0,9489.0
1679065871167881,96810.0,101373.0,9502.0
1679065871176881,96793.0,101383.0,9510.0
1679065871186881,96770.0,101394.0,9502.0
1679065871197881,96775.0,101388.0,9458.0
1679065871207881,96735.0,101368.0,9474.0
1679065871216881,96705.0,101366.0,9490.0
1679065871226881,96731.0,101366.0,9489.0
1679065871237881,96728.0,101351.0,9506.0
1679065871247881,96730.0,101331.0,9501.0
1679065871256881,96756.0,101353.0,9500.0
1679065871266881,96837.0,101443.0,9506.0
1679065871277881,96947.0,101567.0,9517.0
1679065871287881,97082.0,101770.0,9542.0
1679065871296881,97236.0,101943.0,9563.0
1679065871306881,97386.0,102093.0,9570.0
1679065871317881,97520.0,102206.0,9581.0
1679065871327881,97630.0,102316.0,9578.0
1679065871336881,97707.0,102377.0,9602.0
1679065871346881,97747.0,102408.0,9601.0
1679065871356881,97714.0,102388.0,9606.0
1679065871367881,97675.0,102340.0,9540.0
1679065871376881,97549.0,102250.0,9584.0
1679065871386881,97495.0,102153.0,9543.0
1679065871396881,97393.0,102085.0,9539.0
1679065871407881,97309.0,101986.0,9558.0
1679065871417881,97204.0,101920.0,9548.0
1679065871426881,97141.0,101843.0,9542.0
1679065871436881,97096.0,101719.0,9527.0
1679065871447881,97021.0,101652.0,9515.0
1679065871457881,96977.0,101587.0,9514.0
1679065871466881,96894.0,101546.0,9512.0
1679065871476881,96838.0,101512.0,9506.0
1679065871487881,96820.0,101440.0,9499.0
1679065871497881,96798.0,101434.0,9491.0
1679065871506881,96794.0,101451.0,9498.0
1679065871516881,96806.0,101446.0,9508.0
1679065871526881,96832.0,101467.0,9513.0
1679065871537881,96851.0,101483.0,9483.0
1679065871546881,96829.0,101533.0,9512.0
1679065871556881,96922.0,101590.0,9524.0
1679065871566881,96970.0,101627.0,9511.0
1679065871577881,97021.0,101671.0,9522.0
1679065871586881,97020.0,101674.0,9509.0
1679065871597881,97097.0,101703.0,9527.0
1679065871606881,97114.0,101730.0,9544.0
1679065871616881,97124.0,101762.0,9520.0
1679065871627881,97126.0,101758.0,9494.0
1679065871636881,97099.0,101765.0,9496.0
1679065871646881,97104.0,101752.0,9504.0
1679065871656881,97078.0,101719.0,9522.0
1679065871667881,97054.0,101695.0,9525.0
1679065871676881,97058.0,101662.0,9524.0
1679065871686881,97043.0,101649.0,9522.0
1679065871696881,97025.0,101652.0,9519.0
1679065871707881,96998.0,101641.0,9519.0
1679065871716881,96976.0,101590.0,9519.0
1679065871726881,96950.0,101598.0,9516.0
1679065871736881,96945.0,101566.0,9497.0
1679065871746881,96941.0,101554.0,9480.0
1679065871756881,96913.0,101543.0,9477.0
1679065871766881,96898.0,101486.0,9513.0
1679065871777881,96897.0,101485.0,9502.0
1679065871786881,96886.0,101510.0,9509.0
1679065871796881,96865.0,101490.0,9505.0
1679065871806881,96868.0,101458.0,9497.0
1679065871817881,96863.0,101455.0,9502.0
1679065871826881,96851.0,101462.0,9502.0
1679065871836881,96859.0,101479.0,9511.0
1679065871846881,96854.0,101474.0,9499.0
1679065871856881,96856.0,101464.0,9509.0
1679065871866881,96866.0,101461.0,9501.0
1679065871877881,96857.0,101448.0,9469.0
1679065871886881,96855.0,101414.0,9501.0
1679065871896881,96836.0,101471.0,9503.0
1679065871907881,96838.0,101443.0,9472.0
1679065871916881,96821.0,101427.0,9494.0
1679065871926881,96809.0,101428.0,9504.0
1679065871936881,96798.0,101408.0,9497.0
1679065871947881,96775.0,101405.0,9483.0
1679065871956881,96772.0,101356.0,9493.0
1679065871965881,96757.0,101356.0,9492.0
1679065871976881,96772.0,101370.0,9486.0
1679065871987881,96753.0,101377.0,9457.0
1679065871996881,96738.0,101333.0,9493.0
1679065872006881,96743.0,101359.0,9492.0
1679065872016881,96773.0,101377.0,9492.0
1679065872026881,96798.0,101439.0,9499.0
1679065872036881,96886.0,101528.0,9478.0
1679065872045881,97001.0,101643.0,9499.0
1679065872056881,97148.0,101810.0,9499.0
1679065872066881,97296.0,101989.0,9522.0
1679065872077881,97411.0,102128.0,9551.0
1679065872086881,97553.0,102270.0,9570.0
1679065872096881,97658.0,102372.0,9579.0
1679065872106881,97716.0,102446.0,9600.0
1679065872116881,97737.0,102420.0,9600.0
1679065872127881,97696.0,102374.0,9551.0
1679065872135881,97607.0,102277.0,9570.0
1679065872146880,97555.0,102196.0,9576.0
1679065872156880,97403.0,102105.0,9558.0
1679065872167880,97338.0,102043.0,9555.0
1679065872175880,97274.0,101985.0,9550.0
1679065872186880,97214.0,101901.0,9533.0
1679065872196880,97156.0,101824.0,9522.0
1679065872206880,97080.0,101775.0,9525.0
1679065872215880,96990.0,101670.0,9516.0
1679065872226880,96926.0,101621.0,9513.0
1679065872236880,96871.0,101559.0,9507.0
1679065872247881,96851.0,101533.0,9496.0
1679065872255881,96838.0,101498.0,9490.0
1679065872266881,96836.0,101433.0,9508.0
1679065872276881,96842.0,101454.0,9505.0
1679065872287881,96844.0,101501.0,9506.0
1679065872295880,96875.0,101513.0,9490.0
1679065872305880,96925.0,101562.0,9499.0
1679065872316880,96967.0,101600.0,9489.0
1679065872326880,97005.0,101643.0,9486.0
1679065872336880,96997.0,101701.0,9528.0
1679065872345880,97044.0,101736.0,9508.0
1679065872356880,97098.0,101767.0,9521.0
1679065872366880,97110.0,101783.0,9530.0
1679065872377880,97132.0,101787.0,9527.0
1679065872385880,97127.0,101789.0,9525.0
1679065872396880,97080.0,101774.0,9541.0
1679065872406880,97076.0,101760.0,9517.0
1679065872417880,97085.0,101741.0,9514.0
1679065872425881,97064.0,101709.0,9522.0
1679065872436881,97051.0,101675.0,9519.0
1679065872446881,97013.0,101651.0,9518.0
1679065872456881,97005.0,101619.0,9512.0
1679065872466881,96986.0,101611.0,9484.0
1679065872476881,96948.0,101592.0,9468.0
1679065872486881,96945.0,101517.0,9495.0
1679065872496881,96918.0,101547.0,9510.0
1679065872506881,96897.0,101545.0,9506.0
1679065872515881,96879.0,101501.0,9507.0
1679065872526881,96865.0,101487.0,9496.0
1679065872536881,96866.0,101453.0,9500.0
1679065872546881,96850.0,101479.0,9499.0
1679065872556881,96852.0,101490.0,9497.0
1679065872565881,96847.0,101473.0,9501.0
1679065872576881,96840.0,101446.0,9462.0
1679065872586881,96830.0,101449.0,9471.0
1679065872596881,96817.0,101443.0,9499.0
1679065872605881,96816.0,101431.0,9479.0
1679065872616881,96812.0,101439.0,9452.0
1679065872626881,96815.0,101432.0,9490.0
1679065872636881,96818.0,101372.0,9498.0
1679065872646881,96809.0,101401.0,9503.0
1679065872655881,96804.0,101407.0,9496.0
1679065872666881,96815.0,101419.0,9471.0
1679065872675881,96808.0,101406.0,9482.0
1679065872686881,96793.0,101400.0,9461.0
1679065872695881,96778.0,101392.0,9485.0
1679065872706881,96784.0,101373.0,9483.0
1679065872715881,96778.0,101366.0,9473.0
1679065872726881,96753.0,101378.0,9485.0
1679065872735881,96738.0,101366.0,9496.0
1679065872746881,96732.0,101375.0,9502.0
1679065872755881,96715.0,101381.0,9489.0
1679065872766881,96727.0,101395.0,9509.0
1679065872775881,96755.0,101424.0,9500.0
1679065872786881,96847.0,101489.0,9487.0
1679065872795881,96908.0,101599.0,9522.0
1679065872806881,97070.0,101764.0,9540.0
1679065872816881,97248.0,101914.0,9548.0
1679065872826881,97392.0,102097.0,9570.0
1679065872836881,97528.0,102225.0,9572.0
1679065872845881,97651.0,102368.0,9574.0
1679065872856881,97741.0,102446.0,9574.0
1679065872865881,97787.0,102487.0,9588.0
1679065872876881,97764.0,102487.0,9599.0
1679065872885881,97705.0,102423.0,9592.0
1679065872896881,97686.0,102306.0,9539.0
1679065872905881,97618.0,102260.0,9537.0
1679065872916881,97535.0,102198.0,9540.0
1679065872925881,97456.0,102113.0,9552.0
1679065872936881,97389.0,102052.0,9541.0
1679065872945881,97331.0,101978.0,9543.0
1679065872956881,97262.0,101900.0,9545.0
1679065872965881,97186.0,101830.0,9528.0
1679065872976881,97109.0,101744.0,9522.0
1679065872986881,97060.0,101710.0,9518.0
1679065872996881,97002.0,101646.0,9511.0
1679065873005881,96950.0,101611.0,9513.0
1679065873015881,96895.0,101602.0,9514.0
1679065873026881,96949.0,101565.0,9503.0
1679065873036881,96959.0,101553.0,9504.0
1679065873045881,96979.0,101594.0,9517.0
1679065873055881,97019.0,101652.0,9490.0
1679065873065881,97060.0,101694.0,9502.0
1679065873076881,97099.0,101736.0,9497.0
1679065873086881,97136.0,101783.0,9497.0
1679065873095881,97159.0,101785.0,9536.0
1679065873105881,97190.0,101839.0,9532.0
1679065873116881,97206.0,101873.0,9503.0
1679065873126881,97196.0,101877.0,9524.0
1679065873135881,97198.0,101875.0,9536.0
1679065873145881,97213.0,101872.0,9531.0
1679065873156881,97198.0,101859.0,9527.0
1679065873166881,97192.0,101783.0,9527.0
1679065873175881,97167.0,101778.0,9534.0
1679065873185881,97145.0,101783.0,9530.0
1679065873195881,97124.0,101760.0,9488.0
1679065873206881,97110.0,101718.0,9501.0
1679065873215881,97073.0,101697.0,9499.0
1679065873225881,97071.0,101664.0,9475.0
1679065873235881,96983.0,101673.0,9517.0
1679065873246881,96989.0,101667.0,9502.0
1679065873255881,96987.0,101637.0,9508.0
1679065873265881,96992.0,101636.0,9499.0
1679065873275881,96990.0,101630.0,9519.0
1679065873286881,96989.0,101632.0,9514.0
1679065873295881,96978.0,101607.0,9498.0
1679065873305881,96942.0,101624.0,9496.0
1679065873315881,96947.0,101604.0,9497.0
1679065873326881,96959.0,101595.0,9504.0
1679065873336881,96940.0,101564.0,9503.0
1679065873345881,96938.0,101570.0,9505.0
1679065873355881,96938.0,101561.0,9477.0
1679065873365881,96934.0,101559.0,9483.0
1679065873376881,96934.0,101565.0,9490.0
1679065873387881,96948.0,101526.0,9513.0
1679065873395881,96948.0,101516.0,9534.0
1679065873405881,96932.0,101563.0,9504.0
1679065873416880,96912.0,101528.0,9497.0
1679065873425881,96895.0,101511.0,9491.0
1679065873436880,96900.0,101470.0,9505.0
1679065873445881,96900.0,101461.0,9511.0
1679065873456880,96895.0,101491.0,9505.0
1679065873465880,96878.0,101493.0,9508.0
1679065873475880,96887.0,101493.0,9487.0
1679065873487881,96882.0,101496.0,9468.0
1679065873496881,96888.0,101503.0,9474.0
1679065873505881,96932.0,101555.0,9503.0
1679065873515881,96993.0,101653.0,9519.0
1679065873525881,97079.0,101784.0,9514.0
1679065873535881,97190.0,101944.0,9537.0
1679065873545881,97332.0,102086.0,9561.0
1679065873555881,97447.0,102208.0,9571.0
1679065873565881,97607.0,102355.0,9578.0
1679065873575881,97700.0,102456.0,9572.0
1679065873587881,97765.0,102496.0,9588.0
1679065873595881,97783.0,102422.0,9598.0
1679065873605881,97738.0,102451.0,9587.0
1679065873615881,97681.0,102366.0,9584.0
1679065873626881,97605.0,102235.0,9579.0
1679065873635881,97529.0,102143.0,9564.0
1679065873645881,97440.0,102092.0,9557.0
1679065873655881,97375.0,102027.0,9523.0
1679065873665881,97297.0,101943.0,9530.0
1679065873675881,97228.0,101879.0,9507.0
1679065873685881,97105.0,101810.0,9524.0
1679065873695881,97029.0,101749.0,9524.0
1679065873705881,96966.0,101667.0,9520.0
1679065873715881,96927.0,101619.0,9498.0
1679065873725881,96897.0,101575.0,9490.0
1679065873735881,96869.0,101554.0,9491.0
1679065873745881,96864.0,101516.0,9482.0
1679065873754881,96870.0,101517.0,9473.0
1679065873765881,96893.0,101549.0,9466.0
1679065873775881,96917.0,101580.0,9473.0
1679065873785881,96955.0,101622.0,9454.0
1679065873795881,96975.0,101670.0,9485.0
1679065873805881,97037.0,101706.0,9513.0
1679065873815881,97082.0,101758.0,9519.0
1679065873825881,97123.0,101796.0,9521.0
1679065873835881,97110.0,101828.0,9534.0
1679065873845881,97140.0,101850.0,9536.0
1679065873855881,97134.0,101865.0,9527.0
1679065873866881,97174.0,101866.0,9529.0
1679065873875881,97170.0,101845.0,9528.0
1679065873884881,97152.0,101829.0,9518.0
1679065873895881,97122.0,101819.0,9506.0
1679065873905881,97131.0,101789.0,9516.0
1679065873916881,97128.0,101776.0,9494.0
1679065873924881,97049.0,101785.0,9528.0
1679065873935881,97039.0,101766.0,9525.0
1679065873945881,97054.0,101751.0,9530.0
1679065873956880,97062.0,101701.0,9513.0
1679065873964880,97044.0,101670.0,9509.0
1679065873975880,97037.0,101669.0,9507.0
1679065873985880,97018.0,101648.0,9517.0
1679065873996880,97003.0,101654.0,9518.0
1679065874004880,96967.0,101642.0,9514.0
1679065874015880,96973.0,101596.0,9515.0
1679065874025880,96966.0,101600.0,9501.0
1679065874036880,96969.0,101595.0,9515.0
1679065874044881,96959.0,101605.0,9510.0
1679065874054881,96950.0,101623.0,9518.0
1679065874065881,96964.0,101629.0,9474.0
1679065874075881,96935.0,101623.0,9498.0
1679065874086881,96945.0,101626.0,9505.0
1679065874094880,96945.0,101611.0,9505.0
1679065874105880,96945.0,101589.0,9504.0
1679065874115880,96936.0,101601.0,9490.0
1679065874126880,96931.0,101600.0,9498.0
1679065874134880,96933.0,101605.0,9509.0
1679065874145880,96933.0,101601.0,9508.0
1679065874155880,96918.0,101561.0,9508.0
1679065874166880,96905.0,101560.0,9498.0
1679065874174880,96908.0,101524.0,9504.0
1679065874185880,96881.0,101532.0,9501.0
1679065874195880,96904.0,101567.0,9513.0
1679065874206880,96929.0,101595.0,9499.0
1679065874214880,96981.0,101621.0,9514.0
1679065874224881,97077.0,101787.0,9526.0
1679065874235881,97212.0,101936.0,9526.0
1679065874245881,97300.0,102073.0,9550.0
1679065874254881,97439.0,102226.0,9579.0
1679065874264881,97553.0,102345.0,9584.0
1679065874274881,97704.0,102477.0,9601.0
1679065874285881,97820.0,102552.0,9587.0
1679065874295881,97844.0,102583.0,9586.0
1679065874305881,97841.0,102566.0,9604.0
1679065874314881,97770.0,102491.0,9569.0
1679065874325881,97694.0,102400.0,9554.0
1679065874335881,97603.0,102313.0,9564.0
1679065874345881,97533.0,102237.0,9531.0
1679065874354881,97429.0,102164.0,9529.0
1679065874365881,97363.0,102086.0,9531.0
1679065874375881,97295.0,102019.0,9536.0
1679065874385881,97240.0,101935.0,9534.0
1679065874395881,97090.0,101871.0,9537.0
1679065874405881,97042.0,101844.0,9509.0
1679065874415881,97026.0,101727.0,9476.0
1679065874425881,96928.0,101677.0,9503.0
1679065874434881,96896.0,101646.0,9505.0
1679065874445881,96908.0,101621.0,9501.0
1679065874455881,96893.0,101625.0,9496.0
1679065874464881,96909.0,101617.0,9499.0
1679065874475881,96933.0,101631.0,9472.0
1679065874484881,96960.0,101668.0,9499.0
1679065874496881,96985.0,101721.0,9518.0
1679065874504881,97003.0,101751.0,9517.0
1679065874515881,97094.0,101794.0,9487.0
1679065874524881,97073.0,101859.0,9521.0
1679065874535881,97108.0,101879.0,9536.0
1679065874544881,97135.0,101886.0,9533.0
1679065874555881,97175.0,101911.0,9536.0
1679065874564881,97169.0,101894.0,9525.0
1679065874575881,97167.0,101888.0,9530.0
1679065874585881,97150.0,101872.0,9529.0
1679065874596881,97137.0,101860.0,9538.0
1679065874604881,97139.0,101850.0,9531.0
1679065874615881,97114.0,101830.0,9528.0
1679065874625881,97094.0,101787.0,9518.0
1679065874634881,97091.0,101762.0,9506.0
1679065874645881,97050.0,101791.0,9516.0
1679065874654881,97038.0,101774.0,9504.0
1679065874665881,97035.0,101751.0,9512.0
1679065874674881,97020.0,101734.0,9514.0
1679065874685881,97006.0,101722.0,9516.0
1679065874694881,96997.0,101696.0,9510.0
1679065874705881,96991.0,101703.0,9514.0
1679065874714881,96948.0,101701.0,9521.0
1679065874725880,96976.0,101701.0,9509.0
1679065874734881,96987.0,101685.0,9519.0
1679065874745880,96983.0,101693.0,9521.0
1679065874754881,96969.0,101667.0,9517.0
1679065874765881,96980.0,101681.0,9514.0
1679065874774881,96979.0,101655.0,9504.0
1679065874784881,96975.0,101701.0,9513.0
1679065874794881,96960.0,101692.0,9507.0
1679065874804881,96943.0,101675.0,9525.0
1679065874815881,96985.0,101667.0,9497.0
1679065874824881,96933.0,101684.0,9514.0
1679065874835881,96968.0,101691.0,9509.0
1679065874844881,96970.0,101690.0,9502.0
1679065874855881,96986.0,101672.0,9515.0
1679065874864881,97019.0,101686.0,9508.0
1679065874875881,97081.0,101772.0,9534.0
1679065874884881,97162.0,101880.0,9531.0
1679065874895881,97284.0,102041.0,9544.0
1679065874904881,97415.0,102188.0,9562.0
1679065874915881,97558.0,102309.0,9575.0
1679065874924881,97668.0,102441.0,9585.0
1679065874935881,97776.0,102550.0,9588.0
1679065874945881,97865.0,102621.0,9609.0
1679065874954881,97880.0,102668.0,9617.0
1679065874964881,97893.0,102687.0,9578.0
1679065874974881,97803.0,102601.0,9602.0
1679065874985881,97735.0,102512.0,9589.0
1679065874994881,97650.0,102429.0,9586.0
1679065875004881,97595.0,102345.0,9569.0
1679065875014881,97509.0,102266.0,9558.0
1679065875025881,97441.0,102190.0,9554.0
1679065875034881,97370.0,102133.0,9539.0
1679065875044881,97276.0,102064.0,9544.0
1679065875054881,97204.0,101953.0,9537.0
1679065875065881,97135.0,101880.0,9523.0
1679065875074881,97052.0,101782.0,9517.0
1679065875085881,96999.0,101743.0,9509.0
1679065875094881,96976.0,101675.0,9509.0
1679065875104881,96953.0,101680.0,9508.0
1679065875114881,96954.0,101711.0,9497.0
1679065875125881,96973.0,101667.0,9502.0
1679065875134881,96973.0,101671.0,9514.0
1679065875144881,97006.0,101743.0,9503.0
1679065875154881,97047.0,101803.0,9478.0
1679065875164881,97079.0,101841.0,9507.0
1679065875173881,97110.0,101882.0,9502.0
1679065875184881,97155.0,101924.0,9527.0
1679065875194881,97190.0,101936.0,9502.0
1679065875205881,97216.0,101963.0,9499.0
1679065875214881,97194.0,101966.0,9539.0
1679065875224881,97210.0,101965.0,9529.0
1679065875234881,97179.0,101942.0,9534.0
1679065875245881,97186.0,101924.0,9507.0
1679065875253881,97168.0,101917.0,9510.0
1679065875264881,97148.0,101888.0,9488.0
1679065875274881,97097.0,101881.0,9512.0
1679065875285880,97085.0,101857.0,9511.0
1679065875294880,97065.0,101824.0,9519.0
1679065875304881,97042.0,101801.0,9518.0
1679065875314881,97046.0,101785.0,9509.0
1679065875325881,97014.0,101775.0,9508.0
1679065875335881,97011.0,101746.0,9511.0
1679065875344881,96993.0,101743.0,9512.0
1679065875354881,96978.0,101719.0,9510.0
1679065875364881,96975.0,101702.0,9483.0
1679065875375881,96964.0,101707.0,9481.0
1679065875383880,96938.0,101705.0,9492.0
1679065875394880,96916.0,101691.0,9512.0
1679065875404880,96884.0,101683.0,9507.0
1679065875415880,96929.0,101686.0,9461.0
1679065875423880,96886.0,101669.0,9513.0
1679065875434880,96881.0,101670.0,9511.0
1679065875444880,96896.0,101667.0,9509.0
1679065875455880,96911.0,101673.0,9501.0
1679065875463880,96930.0,101670.0,9503.0
1679065875474880,96938.0,101680.0,9503.0
1679065875484881,96934.0,101689.0,9512.0
1679065875495881,96966.0,101723.0,9521.0
1679065875504881,97021.0,101782.0,9513.0
1679065875513881,97118.0,101882.0,9536.0
1679065875524881,97245.0,102029.0,9531.0
1679065875534881,97379.0,102174.0,9533.0
1679065875544881,97483.0,102312.0,9579.0
1679065875553881,97591.0,102451.0,9594.0
1679065875564881,97737.0,102590.0,9595.0
1679065875574881,97835.0,102665.0,9579.0
1679065875585881,97865.0,102694.0,9605.0
1679065875594881,97847.0,102658.0,9607.0
1679065875604881,97811.0,102594.0,9603.0
1679065875614881,97769.0,102509.0,9581.0
1679065875625881,97647.0,102434.0,9573.0
1679065875633880,97560.0,102347.0,9572.0
1679065875644880,97479.0,102264.0,9569.0
1679065875654880,97397.0,102182.0,9560.0
1679065875665881,97330.0,102111.0,9542.0
1679065875674881,97253.0,101987.0,9535.0
1679065875683881,97177.0,101940.0,9529.0
1679065875694881,97060.0,101869.0,9527.0
1679065875704881,96977.0,101786.0,9529.0
1679065875714881,96940.0,101755.0,9464.0
1679065875724881,96948.0,101734.0,9500.0
1679065875734881,96933.0,101721.0,9507.0
1679065875744881,96939.0,101719.0,9506.0
1679065875754881,96947.0,101696.0,9512.0
1679065875764881,96986.0,101704.0,9524.0
1679065875774881,97026.0,101759.0,9531.0
1679065875784881,97068.0,101818.0,9527.0
1679065875794881,97108.0,101891.0,9534.0
1679065875805881,97159.0,101943.0,9536.0
1679065875814881,97179.0,101965.0,9540.0
1679065875824881,97208.0,101960.0,9529.0
1679065875835881,97222.0,101955.0,9544.0
1679065875844881,97250.0,101978.0,9539.0
1679065875853881,97229.0,102018.0,9548.0
1679065875864881,97238.0,102024.0,9505.0
1679065875874881,97220.0,102018.0,9535.0
1679065875884881,97224.0,102031.0,9526.0
1679065875894881,97209.0,101992.0,9541.0
1679065875906881,97197.0,101925.0,9530.0
1679065875914881,97183.0,101903.0,9525.0
1679065875924881,97161.0,101906.0,9536.0
1679065875934881,97142.0,101894.0,9526.0
1679065875944881,97129.0,101886.0,9534.0
1679065875954881,97107.0,101863.0,9524.0
1679065875963881,97103.0,101850.0,9538.0
1679065875974881,97092.0,101840.0,9513.0
1679065875983881,97083.0,101824.0,9522.0
1679065875994881,97081.0,101818.0,9477.0
1679065876003881,97064.0,101825.0,9486.0
1679065876014881,97065.0,101820.0,9476.0
1679065876023881,97072.0,101807.0,9520.0
1679065876034881,97064.0,101801.0,9489.0
1679065876044881,97003.0,101806.0,9521.0
1679065876054881,97052.0,101755.0,9517.0
1679065876064881,97051.0,101745.0,9514.0
1679065876074881,97059.0,101762.0,9526.0
1679065876084881,97050.0,101816.0,9521.0
1679065876093881,97040.0,101789.0,9527.0
1679065876104881,97046.0,101785.0,9523.0
1679065876114881,97058.0,101761.0,9506.0
1679065876124881,97073.0,101836.0,9515.0
1679065876133881,97086.0,101839.0,9523.0
1679065876144881,97113.0,101900.0,9526.0
1679065876154881,97192.0,101934.0,9536.0
1679065876164881,97309.0,102077.0,9539.0
1679065876173881,97455.0,102225.0,9568.0
1679065876184881,97588.0,102398.0,9588.0
1679065876194881,97698.0,102547.0,9589.0
1679065876205881,97808.0,102676.0,9610.0
1679065876213881,97914.0,102762.0,9612.0
1679065876223881,97975.0,102796.0,9621.0
1679065876234881,97940.0,102827.0,9628.0
1679065876244881,97906.0,102751.0,9612.0
1679065876253881,97858.0,102677.0,9597.0
1679065876263881,97766.0,102545.0,9581.0
1679065876274881,97707.0,102459.0,9593.0
1679065876284881,97621.0,102364.0,9574.0
1679065876294880,97535.0,102316.0,9555.0
1679065876303881,97459.0,102241.0,9555.0
1679065876313881,97386.0,102147.0,9517.0
1679065876324880,97252.0,102069.0,9547.0
1679065876334880,97168.0,101998.0,9534.0
1679065876343881,97110.0,101951.0,9543.0
1679065876353881,97096.0,101882.0,9529.0
1679065876364880,97064.0,101875.0,9527.0
1679065876374880,97046.0,101816.0,9517.0
1679065876383881,97006.0,101832.0,9520.0
1679065876394881,97042.0,101853.0,9519.0
1679065876404881,97071.0,101806.0,9521.0
1679065876414881,97113.0,101903.0,9535.0
1679065876423881,97149.0,101914.0,9543.0
1679065876433881,97188.0,101935.0,9539.0
1679065876444881,97187.0,102030.0,9544.0
1679065876454881,97219.0,102071.0,9546.0
1679065876463881,97269.0,102099.0,9546.0
1679065876473881,97304.0,102116.0,9554.0
1679065876484881,97305.0,102116.0,9558.0
1679065876494881,97310.0,102093.0,9550.0
1679065876503881,97292.0,102102.0,9549.0
1679065876513881,97272.0,102044.0,9541.0
1679065876524881,97252.0,102048.0,9535.0
1679065876533881,97228.0,102030.0,9542.0
1679065876544880,97207.0,102007.0,9532.0
1679065876553881,97193.0,101932.0,9526.0
1679065876564881,97166.0,101932.0,9524.0
1679065876574881,97142.0,101881.0,9534.0
1679065876583881,97118.0,101896.0,9523.0
1679065876593881,97090.0,101880.0,9526.0
1679065876603881,97058.0,101858.0,9526.0
1679065876613881,97034.0,101855.0,9526.0
1679065876624881,97035.0,101834.0,9514.0
1679065876633881,97051.0,101798.0,9501.0
1679065876643881,97043.0,101792.0,9488.0
1679065876653881,96999.0,101785.0,9508.0
1679065876664881,96985.0,101784.0,9522.0
1679065876673881,96959.0,101767.0,9517.0
1679065876683881,96960.0,101784.0,9520.0
1679065876693881,96961.0,101764.0,9519.0
1679065876704881,96984.0,101769.0,9511.0
1679065876713881,96994.0,101758.0,9513.0
1679065876723881,96986.0,101746.0,9529.0
1679065876733881,96942.0,101746.0,9513.0
1679065876744881,96986.0,101758.0,9518.0
1679065876753881,96982.0,101724.0,9512.0
1679065876763881,96965.0,101730.0,9522.0
1679065876773881,96975.0,101724.0,9505.0
1679065876783881,96976.0,101721.0,9498.0
1679065876794881,96979.0,101709.0,9473.0
1679065876803881,96970.0,101701.0,9513.0
1679065876814881,96962.0,101726.0,9519.0
1679065876823881,97007.0,101742.0,9512.0
1679065876834881,97086.0,101882.0,9531.0
1679065876843881,97202.0,102021.0,9543.0
1679065876853881,97332.0,102169.0,9548.0
1679065876863881,97479.0,102310.0,9543.0
1679065876873881,97590.0,102446.0,9567.0
1679065876883881,97729.0,102585.0,9559.0
1679065876893881,97830.0,102690.0,9598.0
1679065876904881,97898.0,102756.0,9612.0
1679065876913881,97921.0,102751.0,9606.0
1679065876923881,97890.0,102693.0,9613.0
1679065876933881,97797.0,102638.0,9584.0
1679065876943881,97742.0,102513.0,9578.0
1679065876954881,97675.0,102456.0,9556.0
1679065876962880,97591.0,102371.0,9546.0
1679065876973880,97514.0,102288.0,9517.0
1679065876983880,97441.0,102200.0,9560.0
1679065876994880,97370.0,102160.0,9560.0
1679065877003880,97302.0,102086.0,9537.0
1679065877013880,97239.0,102009.0,9513.0
1679065877023880,97177.0,101992.0,9515.0
1679065877033880,97117.0,101896.0,9530.0
1679065877044880,97090.0,101866.0,9486.0
1679065877052880,97055.0,101863.0,9498.0
1679065877063880,97062.0,101841.0,9510.0
1679065877073880,97041.0,101858.0,9527.0
1679065877084880,97080.0,101889.0,9524.0
1679065877092880,97104.0,101951.0,9540.0
1679065877103881,97166.0,101997.0,9543.0
1679065877114881,97221.0,102049.0,9533.0
1679065877124881,97286.0,102050.0,9536.0
1679065877133881,97321.0,102114.0,9547.0
1679065877143881,97354.0,102156.0,9556.0
1679065877153881,97383.0,102159.0,9562.0
1679065877163881,97346.0,102183.0,9560.0
1679065877173881,97372.0,102184.0,9549.0
1679065877183881,97378.0,102178.0,9549.0
1679065877193881,97369.0,102167.0,9541.0
1679065877203881,97363.0,102145.0,9546.0
1679065877214881,97341.0,102135.0,9552.0
1679065877223881,97317.0,102062.0,9540.0
1679065877233881,97307.0,102087.0,9545.0
1679065877243881,97278.0,102067.0,9545.0
1679065877253881,97255.0,102031.0,9547.0
1679065877263881,97237.0,102011.0,9538.0
1679065877273881,97225.0,101977.0,9541.0
1679065877283881,97208.0,101970.0,9510.0
1679065877293881,97156.0,101946.0,9530.0
1679065877303881,97166.0,101950.0,9533.0
1679065877315881,97158.0,101897.0,9528.0
1679065877323881,97136.0,101913.0,9551.0
1679065877333881,97118.0,101904.0,9528.0
1679065877343881,97125.0,101843.0,9522.0
1679065877353881,97124.0,101850.0,9526.0
1679065877363881,97116.0,101851.0,9530.0
1679065877373881,97123.0,101869.0,9502.0
1679065877382881,97116.0,101863.0,9509.0
1679065877393881,97115.0,101861.0,9502.0
1679065877403881,97105.0,101875.0,9488.0
1679065877415881,97096.0,101872.0,9498.0
1679065877422881,97120.0,101854.0,9518.0
1679065877433881,97077.0,101848.0,9536.0
1679065877443881,97060.0,101860.0,9523.0
1679065877453881,97073.0,101853.0,9523.0
1679065877462881,97071.0,101817.0,9522.0
1679065877473881,97068.0,101812.0,9519.0
1679065877483881,97075.0,101811.0,9518.0
1679065877493881,97036.0,101806.0,9522.0
1679065877503881,97033.0,101824.0,9519.0
1679065877512881,97023.0,101819.0,9525.0
1679065877523881,97083.0,101830.0,9520.0
1679065877533881,97142.0,101922.0,9521.0
1679065877544880,97238.0,102048.0,9531.0
1679065877552880,97373.0,102150.0,9557.0
1679065877563880,97510.0,102324.0,9578.0
1679065877573880,97652.0,102475.0,9590.0
1679065877584880,97773.0,102642.0,9603.0
1679065877592880,97914.0,102779.0,9611.0
1679065877602880,98027.0,102866.0,9633.0
1679065877613880,98061.0,102895.0,9616.0
1679065877624880,98034.0,102868.0,9609.0
1679065877632880,97952.0,102765.0,9618.0
1679065877643881,97867.0,102688.0,9607.0
1679065877653881,97789.0,102599.0,9590.0
1679065877663881,97715.0,102521.0,9567.0
1679065877673881,97635.0,102441.0,9589.0
1679065877682881,97560.0,102355.0,9571.0
1679065877692881,97486.0,102289.0,9558.0
1679065877703881,97413.0,102215.0,9507.0
1679065877712881,97309.0,102145.0,9522.0
1679065877723881,97257.0,102057.0,9518.0
1679065877732881,97199.0,101977.0,9516.0
1679065877743881,97153.0,101920.0,9508.0
1679065877753881,97107.0,101895.0,9501.0
1679065877763881,97082.0,101892.0,9516.0
1679065877772881,97078.0,101874.0,9528.0
1679065877783881,97086.0,101890.0,9526.0
1679065877793881,97106.0,101892.0,9526.0
1679065877803881,97129.0,101937.0,9525.0
1679065877813881,97188.0,101926.0,9544.0
1679065877823881,97229.0,102026.0,9529.0
1679065877833881,97264.0,102065.0,9540.0
1679065877842881,97309.0,102124.0,9523.0
1679065877853881,97330.0,102143.0,9526.0
1679065877862881,97334.0,102158.0,9536.0
1679065877873881,97332.0,102178.0,9545.0
1679065877882881,97366.0,102181.0,9543.0
1679065877893881,97353.0,102171.0,9546.0
1679065877903881,97342.0,102159.0,9542.0
1679065877913881,97321.0,102094.0,9547.0
1679065877922881,97317.0,102053.0,9539.0
1679065877933881,97303.0,102116.0,9543.0
1679065877943881,97277.0,102029.0,9538.0
1679065877953881,97260.0,102022.0,9547.0
1679065877962881,97251.0,101959.0,9548.0
1679065877973881,97225.0,101979.0,9544.0
1679065877983881,97212.0,101985.0,9535.0
1679065877993881,97192.0,101969.0,9535.0
1679065878003881,97193.0,101968.0,9536.0
1679065878012881,97176.0,101959.0,9525.0
1679065878023881,97151.0,101956.0,9534.0
1679065878032881,97159.0,101938.0,9516.0
1679065878043881,97157.0,101948.0,9502.0
1679065878052881,97148.0,101933.0,9502.0
1679065878063881,97148.0,101920.0,9534.0
1679065878073881,97156.0,101913.0,9531.0
1679065878083881,97146.0,101918.0,9535.0
1679065878092881,97145.0,101933.0,9532.0
1679065878102881,97152.0,101923.0,9535.0
1679065878113881,97157.0,101912.0,9516.0
1679065878123881,97163.0,101922.0,9523.0
1679065878132881,97161.0,101934.0,9535.0
1679065878142881,97165.0,101936.0,9529.0
1679065878153881,97181.0,101961.0,9512.0
1679065878162881,97186.0,101955.0,9511.0
1679065878172881,97176.0,101941.0,9512.0
1679065878182881,97166.0,101952.0,9530.0
1679065878193881,97179.0,101947.0,9531.0
1679065878203881,97176.0,101891.0,9531.0
1679065878211881,97165.0,101918.0,9530.0
1679065878222880,97160.0,101932.0,9531.0
1679065878232880,97147.0,101885.0,9533.0
1679065878243880,97126.0,101924.0,9535.0
1679065878253880,97125.0,101916.0,9529.0
1679065878262880,97139.0,101918.0,9530.0
1679065878272880,97166.0,101941.0,9540.0
1679065878283880,97240.0,102050.0,9550.0
1679065878293880,97349.0,102146.0,9556.0
1679065878302880,97480.0,102328.0,9572.0
1679065878312880,97657.0,102469.0,9589.0
1679065878323880,97809.0,102623.0,9599.0
1679065878333880,97956.0,102834.0,9625.0
1679065878342880,98073.0,102946.0,9630.0
1679065878352880,98155.0,103010.0,9649.0
1679065878363881,98178.0,103025.0,9635.0
1679065878373881,98142.0,102964.0,9625.0
1679065878382881,98100.0,102915.0,9626.0
1679065878392881,97962.0,102806.0,9627.0
1679065878402881,97871.0,102739.0,9612.0
1679065878413881,97775.0,102636.0,9595.0
1679065878422881,97742.0,102507.0,9594.0
1679065878432881,97667.0,102479.0,9593.0
1679065878442881,97578.0,102384.0,9570.0
1679065878453881,97511.0,102278.0,9563.0
1679065878462881,97433.0,102230.0,9562.0
1679065878472881,97370.0,102177.0,9553.0
1679065878482881,97304.0,102119.0,9548.0
1679065878493881,97252.0,102069.0,9537.0
1679065878503881,97236.0,102033.0,9538.0
1679065878511880,97211.0,102015.0,9524.0
1679065878522880,97208.0,101994.0,9530.0
1679065878533880,97222.0,102019.0,9523.0
1679065878543881,97231.0,102040.0,9538.0
1679065878552881,97251.0,102052.0,9546.0
1679065878562881,97289.0,102103.0,9526.0
1679065878572881,97339.0,102153.0,9557.0
1679065878583881,97379.0,102204.0,9559.0
1679065878592881,97418.0,102206.0,9548.0
1679065878602881,97438.0,102284.0,9562.0
1679065878613881,97461.0,102274.0,9556.0
1679065878623881,97469.0,102298.0,9569.0
1679065878632881,97458.0,102280.0,9553.0
1679065878642881,97408.0,102254.0,9567.0
1679065878652881,97415.0,102255.0,9553.0
1679065878662881,97416.0,102215.0,9560.0
1679065878672881,97378.0,102194.0,9557.0
1679065878682881,97364.0,102162.0,9550.0
1679065878692881,97337.0,102141.0,9543.0
1679065878702881,97303.0,102093.0,9539.0
1679065878712881,97299.0,102055.0,9544.0
1679065878724881,97277.0,102025.0,9546.0
1679065878733881,97264.0,102019.0,9563.0
1679065878742881,97234.0,102041.0,9539.0
1679065878752881,97185.0,102018.0,9510.0
1679065878762881,97191.0,101996.0,9512.0
1679065878772881,97186.0,101982.0,9546.0
1679065878782881,97158.0,101971.0,9539.0
1679065878792881,97124.0,101965.0,9537.0
1679065878802881,97114.0,101967.0,9540.0
1679065878812881,97140.0,101912.0,9529.0
1679065878824881,97143.0,101931.0,9518.0
1679065878832881,97141.0,101892.0,9530.0
1679065878842881,97130.0,101915.0,9534.0
1679065878852881,97141.0,101895.0,9532.0
1679065878862881,97140.0,101903.0,9539.0
1679065878872881,97153.0,101914.0,9509.0
1679065878881881,97150.0,101918.0,9507.0
1679065878892881,97146.0,101907.0,9499.0
1679065878902881,97106.0,101904.0,9544.0
1679065878913881,97094.0,101915.0,9537.0
1679065878922881,97131.0,101896.0,9540.0
1679065878932881,97141.0,101915.0,9536.0
1679065878942881,97127.0,101865.0,9533.0
1679065878952881,97145.0,101886.0,9537.0
1679065878962881,97106.0,101929.0,9536.0
1679065878971881,97107.0,101924.0,9522.0
1679065878982881,97126.0,101915.0,9525.0
1679065878992881,97117.0,101898.0,9530.0
1679065879002881,97104.0,101888.0,9537.0
1679065879012881,97103.0,101879.0,9519.0
1679065879021881,97091.0,101853.0,9533.0
1679065879032881,97090.0,101876.0,9494.0
1679065879042881,97094.0,101878.0,9532.0
1679065879052881,97114.0,101893.0,9501.0
1679065879061881,97170.0,101969.0,9520.0
1679065879072881,97240.0,102103.0,9546.0
1679065879082881,97410.0,102274.0,9560.0
1679065879092881,97584.0,102439.0,9574.0
1679065879102881,97752.0,102581.0,9605.0
1679065879112881,97890.0,102764.0,9605.0
1679065879122881,98033.0,102895.0,9600.0
1679065879131881,98114.0,102981.0,9616.0
1679065879142881,98163.0,103036.0,9636.0
1679065879152881,98144.0,102991.0,9640.0
1679065879162881,98081.0,102913.0,9629.0
1679065879171881,97998.0,102816.0,9623.0
1679065879182881,97916.0,102748.0,9606.0
1679065879192881,97827.0,102579.0,9589.0
1679065879202881,97738.0,102511.0,9596.0
1679065879211881,97672.0,102438.0,9580.0
1679065879221881,97586.0,102390.0,9584.0
1679065879232881,97526.0,102328.0,9522.0
1679065879242881,97451.0,102262.0,9563.0
1679065879252881,97380.0,102176.0,9547.0
1679065879261881,97322.0,102116.0,9507.0
1679065879272881,97266.0,102085.0,9529.0
1679065879282881,97238.0,102052.0,9536.0
1679065879293881,97206.0,102002.0,9536.0
1679065879301880,97219.0,101972.0,9530.0
1679065879311880,97232.0,101977.0,9551.0
1679065879322880,97242.0,102063.0,9537.0
1679065879332880,97270.0,102085.0,9533.0
1679065879342880,97291.0,102121.0,9553.0
1679065879351880,97340.0,102168.0,9558.0
1679065879362880,97384.0,102205.0,9566.0
1679065879372880,97415.0,102229.0,9569.0
1679065879382880,97457.0,102248.0,9572.0
1679065879391880,97455.0,102271.0,9566.0
1679065879402880,97473.0,102288.0,9570.0
1679065879412880,97489.0,102304.0,9563.0
1679065879421880,97480.0,102301.0,9572.0
1679065879431880,97464.0,102276.0,9548.0
1679065879442881,97444.0,102230.0,9577.0
1679065879452881,97417.0,102222.0,9566.0
1679065879461881,97417.0,102199.0,9534.0
1679065879472881,97389.0,102194.0,9564.0
1679065879481881,97362.0,102169.0,9556.0
1679065879492881,97348.0,102145.0,9546.0
1679065879502881,97337.0,102136.0,9538.0
1679065879511881,97319.0,102114.0,9558.0
1679065879522881,97301.0,102103.0,9556.0
1679065879532881,97289.0,102076.0,9547.0
1679065879542881,97280.0,102090.0,9564.0
1679065879551881,97251.0,102076.0,9533.0
1679065879562881,97259.0,102066.0,9536.0
1679065879572881,97253.0,102051.0,9549.0
1679065879582881,97244.0,102042.0,9549.0
1679065879591881,97233.0,101999.0,9542.0
1679065879602881,97225.0,102012.0,9539.0
1679065879612881,97238.0,101977.0,9532.0
1679065879622881,97243.0,101982.0,9542.0
1679065879631881,97242.0,101999.0,9547.0
1679065879641881,97249.0,102044.0,9516.0
1679065879652881,97235.0,102000.0,9535.0
1679065879662881,97257.0,101983.0,9545.0
1679065879671881,97247.0,101984.0,9548.0
1679065879681881,97252.0,101995.0,9541.0
1679065879692881,97227.0,102012.0,9544.0
1679065879702881,97240.0,102021.0,9544.0
1679065879711881,97193.0,102033.0,9549.0
1679065879721881,97196.0,102021.0,9549.0
1679065879731881,97195.0,102012.0,9547.0
1679065879742881,97209.0,102006.0,9508.0
1679065879752881,97214.0,101995.0,9535.0
1679065879762881,97209.0,102011.0,9540.0
1679065879771881,97188.0,101934.0,9523.0
1679065879782881,97186.0,101938.0,9533.0
1679065879792881,97187.0,101932.0,9531.0
1679065879801881,97191.0,101967.0,9538.0
1679065879812881,97185.0,101965.0,9530.0
1679065879821881,97174.0,101988.0,9541.0
1679065879832881,97260.0,102076.0,9550.0
1679065879841881,97360.0,102207.0,9554.0
1679065879852881,97453.0,102343.0,9573.0
1679065879861881,97650.0,102518.0,9593.0
1679065879872881,97814.0,102698.0,9604.0
1679065879881881,97952.0,102838.0,9628.0
1679065879891881,98033.0,102956.0,9642.0
1679065879902881,98134.0,103045.0,9646.0
1679065879911881,98180.0,103093.0,9651.0
1679065879921881,98190.0,103087.0,9653.0
1679065879933881,98140.0,103004.0,9630.0
1679065879942881,98082.0,102923.0,9652.0
1679065879951881,97990.0,102834.0,9612.0
1679065879961881,97919.0,102755.0,9610.0
1679065879971881,97845.0,102670.0,9604.0
1679065879982881,97763.0,102594.0,9600.0
1679065879992881,97693.0,102497.0,9583.0
1679065880001881,97601.0,102444.0,9593.0
1679065880011881,97542.0,102352.0,9534.0
1679065880021881,97475.0,102291.0,9544.0
1679065880033881,97389.0,102225.0,9528.0
1679065880041881,97325.0,102172.0,9542.0
1679065880051881,97294.0,102138.0,9513.0
1679065880061881,97287.0,102107.0,9531.0
1679065880072881,97241.0,102084.0,9532.0
1679065880081881,97247.0,102085.0,9553.0
1679065880091881,97271.0,102109.0,9552.0
1679065880101881,97295.0,102136.0,9551.0
1679065880112881,97340.0,102148.0,9541.0
1679065880122881,97368.0,102177.0,9544.0
1679065880133880,97409.0,102213.0,9552.0
1679065880141880,97449.0,102259.0,9568.0
1679065880152880,97481.0,102314.0,9578.0
1679065880162881,97497.0,102290.0,9569.0
1679065880170881,97511.0,102313.0,9578.0
1679065880181881,97530.0,102362.0,9576.0
1679065880191881,97536.0,102366.0,9544.0
1679065880202880,97534.0,102360.0,9542.0
1679065880211881,97509.0,102332.0,9551.0
1679065880221881,97480.0,102297.0,9565.0
1679065880231881,97484.0,102247.0,9564.0
1679065880242880,97459.0,102234.0,9577.0
1679065880252880,97451.0,102204.0,9565.0
1679065880261880,97418.0,102213.0,9564.0
1679065880271880,97385.0,102196.0,9563.0
1679065880282880,97371.0,102192.0,9558.0
1679065880292880,97360.0,102181.0,9551.0
1679065880301880,97333.0,102162.0,9551.0
1679065880311880,97330.0,102147.0,9542.0
1679065880321880,97314.0,102145.0,9546.0
1679065880332880,97310.0,102116.0,9522.0
1679065880341881,97247.0,102112.0,9552.0
1679065880351881,97285.0,102108.0,9512.0
1679065880361881,97261.0,102101.0,9540.0
1679065880372881,97283.0,102066.0,9540.0
1679065880381881,97250.0,102041.0,9551.0
1679065880391881,97233.0,102023.0,9549.0
1679065880401881,97208.0,102050.0,9536.0
1679065880411881,97190.0,102040.0,9542.0
1679065880421881,97191.0,102026.0,9535.0
1679065880431881,97185.0,102025.0,9536.0
1679065880441881,97193.0,102028.0,9534.0
1679065880451881,97176.0,102018.0,9540.0
1679065880461881,97198.0,102030.0,9533.0
1679065880471881,97188.0,102025.0,9545.0
1679065880481881,97179.0,102011.0,9547.0
1679065880491881,97172.0,101938.0,9539.0
1679065880502880,97170.0,101953.0,9541.0
1679065880511880,97149.0,101956.0,9537.0
1679065880521881,97144.0,101947.0,9521.0
1679065880531881,97137.0,101940.0,9504.0
1679065880541881,97065.0,101923.0,9535.0
1679065880551881,97048.0,101913.0,9516.0
1679065880561881,97036.0,101889.0,9535.0
1679065880572881,97023.0,101897.0,9535.0
1679065880581881,97038.0,101870.0,9525.0
1679065880591881,97037.0,101865.0,9521.0
1679065880601881,97068.0,101888.0,9527.0
1679065880611881,97131.0,101953.0,9496.0
1679065880621881,97216.0,102068.0,9508.0
1679065880630881,97278.0,102210.0,9543.0
1679065880641881,97396.0,102318.0,9560.0
1679065880651881,97566.0,102458.0,9548.0
1679065880661881,97700.0,102585.0,9550.0
1679065880670881,97757.0,102667.0,9586.0
1679065880681881,97797.0,102722.0,9591.0
1679065880691881,97793.0,102726.0,9613.0
1679065880701881,97758.0,102681.0,9601.0
1679065880710881,97654.0,102568.0,9589.0
1679065880720881,97575.0,102421.0,9571.0
1679065880730881,97449.0,102312.0,9566.0
1679065880741881,97329.0,102183.0,9547.0
1679065880751881,97217.0,102046.0,9534.0
1679065880759881,97067.0,101992.0,9528.0
1679065880770881,97012.0,101936.0,9502.0
1679065880780881,96955.0,101868.0,9503.0
1679065880791880,96878.0,101768.0,9498.0
1679065880799880,96788.0,101675.0,9500.0
1679065880810880,96709.0,101582.0,9489.0
1679065880820880,96566.0,101458.0,9470.0
1679065880830880,96403.0,101308.0,9454.0
1679065880839880,96267.0,101164.0,9417.0
1679065880850880,96095.0,101015.0,9425.0
1679065880860880,96008.0,100939.0,9411.0
1679065880871880,95981.0,100933.0,9418.0
1679065880880881,96109.0,101078.0,9433.0
1679065880889881,96256.0,101246.0,9442.0
1679065880900881,96426.0,101400.0,9442.0
1679065880910881,96586.0,101547.0,9459.0
1679065880920881,96803.0,101775.0,9481.0
1679065880930881,96997.0,101959.0,9481.0
1679065880940881,97195.0,102180.0,9483.0
1679065880950881,97385.0,102371.0,9539.0
1679065880960881,97548.0,102536.0,9544.0
1679065880970881,97693.0,102673.0,9519.0
1679065880979881,97821.0,102825.0,9543.0
1679065880990881,97843.0,102828.0,9520.0
1679065881000881,97274.0,102185.0,9454.0
1679065881010881,96063.0,101010.0,9352.0
1679065881019881,94858.0,99841.0,9250.0
1679065881030881,93793.0,98866.0,9157.0
1679065881040881,92853.0,97998.0,9060.0
1679065881050881,91799.0,97019.0,8924.0
1679065881060881,90634.0,96023.0,8852.0
1679065881070881,89613.0,95180.0,8764.0
1679065881080881,88953.0,94554.0,8707.0
1679065881090881,88312.0,94045.0,8641.0
1679065881100881,87763.0,93581.0,8582.0
1679065881110881,87233.0,93110.0,8543.0
1679065881120881,86720.0,92706.0,8486.0
1679065881129881,86260.0,92329.0,8447.0
1679065881140881,85841.0,91962.0,8418.0
1679065881150881,85436.0,91642.0,8362.0
1679065881160881,85106.0,91390.0,8343.0
1679065881169881,84763.0,91126.0,8314.0
1679065881180881,84436.0,90894.0,8267.0
1679065881190881,84145.0,90676.0,8247.0
1679065881200881,83823.0,90436.0,8214.0
1679065881210881,83546.0,90220.0,8188.0
1679065881219881,83322.0,90075.0,8158.0
1679065881230881,83092.0,89912.0,8127.0
1679065881241881,82901.0,89815.0,8116.0
1679065881251881,82723.0,89719.0,8099.0
1679065881260881,82539.0,89599.0,8051.0
1679065881271881,82394.0,89581.0,8084.0
1679065881281881,82337.0,89559.0,8067.0
1679065881291881,82261.0,89549.0,8052.0
1679065881301881,82258.0,89641.0,8055.0
1679065881310881,82254.0,89708.0,8063.0
1679065881321881,82223.0,89778.0,8057.0
1679065881331881,82221.0,89831.0,8054.0
1679065881341881,82217.0,89904.0,8043.0
1679065881350881,82184.0,89901.0,8042.0
1679065881361881,82220.0,90025.0,8044.0
1679065881371881,82325.0,90175.0,8050.0
1679065881380881,82456.0,90386.0,8066.0
1679065881390881,82660.0,90717.0,8076.0
1679065881400881,82920.0,91003.0,8097.0
1679065881411881,83154.0,91316.0,8100.0
1679065881420881,83278.0,91486.0,8104.0
1679065881431881,83410.0,91678.0,8122.0
1679065881442880,83474.0,91788.0,8142.0
1679065881451881,83399.0,91702.0,8164.0
1679065881461881,83322.0,91701.0,8117.0
1679065881470881,83215.0,91642.0,8110.0
1679065881481881,83280.0,91747.0,8090.0
1679065881490881,83423.0,91962.0,8107.0
1679065881501881,83562.0,92144.0,8110.0
1679065881510881,83728.0,92405.0,8163.0
1679065881521880,84000.0,92698.0,8213.0
1679065881530881,84221.0,92981.0,8234.0
1679065881543881,84527.0,93326.0,8265.0
1679065881550881,84895.0,93754.0,8292.0
1679065881560881,85315.0,94182.0,8322.0
1679065881570881,85686.0,94649.0,8383.0
1679065881581880,86302.0,95313.0,8443.0
1679065881590880,87174.0,96298.0,8536.0
1679065881601881,88217.0,97384.0,8627.0
1679065881610881,89228.0,98457.0,8729.0
1679065881621881,90299.0,99519.0,8842.0
1679065881630881,91357.0,100644.0,8941.0
1679065881640881,92453.0,101771.0,9034.0
1679065881651881,93460.0,102772.0,9099.0
1679065881660881,94265.0,103654.0,9185.0
1679065881670881,95022.0,104448.0,9271.0
1679065881680881,95712.0,105169.0,9327.0
1679065881691881,96338.0,105802.0,9365.0
1679065881700881,96947.0,106445.0,9423.0
1679065881711881,97478.0,107012.0,9488.0
1679065881720881,97901.0,107423.0,9514.0
1679065881731881,98221.0,107725.0,9533.0
1679065881741881,98457.0,107979.0,9553.0
1679065881751881,98759.0,108284.0,9582.0
1679065881760881,99123.0,108622.0,9625.0
1679065881770881,99543.0,109127.0,9682.0
1679065881781881,100047.0,109653.0,9723.0
1679065881790881,100628.0,110238.0,9758.0
1679065881800881,101246.0,110903.0,9843.0
1679065881810881,102074.0,111706.0,9908.0
1679065881821881,102903.0,112554.0,9983.0
1679065881831881,103786.0,113472.0,10067.0
1679065881840881,104722.0,114583.0,10162.0
1679065881850881,105951.0,115938.0,10290.0
1679065881860881,107534.0,117180.0,10391.0
1679065881871881,109257.0,119033.0,10534.0
1679065881880881,110889.0,120812.0,10709.0
1679065881890881,112443.0,122495.0,10858.0
1679065881900881,114049.0,124299.0,10967.0
1679065881911881,115682.0,126087.0,11111.0
1679065881920881,116657.0,127707.0,11205.0
1679065881930881,117924.0,129177.0,11302.0
1679065881940881,119005.0,130484.0,11357.0
1679065881951881,119886.0,131634.0,11424.0
1679065881961881,120709.0,132118.0,11451.0
1679065881970881,121401.0,133036.0,11503.0
1679065881980881,121998.0,133828.0,11521.0
1679065881990881,122362.0,134338.0,11543.0
1679065882001881,122572.0,134621.0,11575.0
1679065882010881,122720.0,134847.0,11587.0
1679065882020881,122938.0,135125.0,11613.0
1679065882030881,123090.0,135241.0,11610.0
1679065882041881,123137.0,135319.0,11612.0
1679065882050881,123197.0,135355.0,11626.0
1679065882060881,123263.0,135520.0,11625.0
1679065882070881,123380.0,135642.0,11628.0
1679065882081881,123558.0,135956.0,11641.0
1679065882090881,123723.0,136273.0,11638.0
1679065882100881,123810.0,136428.0,11641.0
1679065882110881,123919.0,136542.0,11646.0
1679065882120881,123951.0,136602.0,11636.0
1679065882130881,123982.0,136604.0,11628.0
1679065882140881,123966.0,136682.0,11656.0
1679065882150881,124060.0,136807.0,11646.0
1679065882160881,124123.0,136926.0,11658.0
1679065882170881,124195.0,136977.0,11666.0
1679065882180881,124173.0,136968.0,11660.0
1679065882190881,124117.0,136907.0,11666.0
1679065882200881,124142.0,136918.0,11648.0
1679065882210881,124203.0,137092.0,11653.0
1679065882220881,124330.0,137295.0,11627.0
1679065882230881,124384.0,137460.0,11662.0
1679065882241881,124431.0,137488.0,11677.0
1679065882250881,124530.0,137646.0,11678.0
1679065882260881,124725.0,137958.0,11684.0
1679065882270881,124969.0,138385.0,11683.0
1679065882281880,125318.0,139011.0,11704.0
1679065882290881,125843.0,139880.0,11696.0
1679065882300881,126425.0,140998.0,11713.0
1679065882310881,127095.0,142239.0,11710.0
1679065882320881,127581.0,143195.0,11672.0
1679065882331881,127845.0,143894.0,11633.0
1679065882340881,127862.0,144800.0,11525.0
1679065882350881,127502.0,144876.0,11436.0
1679065882360881,127071.0,144336.0,11428.0
1679065882370881,126670.0,142999.0,11512.0
1679065882380881,126089.0,141323.0,11565.0
1679065882389881,125269.0,139520.0,11610.0
1679065882400881,124127.0,137090.0,11653.0
1679065882410881,122578.0,134483.0,11685.0
1679065882420881,121057.0,132377.0,11620.0
1679065882429881,120448.0,131655.0,11614.0
1679065882440881,120891.0,132323.0,11634.0
1679065882450881,122049.0,134096.0,11654.0
1679065882461881,123532.0,136425.0,11663.0
1679065882469880,124721.0,138647.0,11681.0
1679065882480880,125491.0,140200.0,11630.0
1679065882490880,125915.0,141263.0,11603.0
1679065882501881,126109.0,141731.0,11575.0
1679065882510881,126222.0,141905.0,11577.0
1679065882519881,126245.0,141785.0,11598.0
1679065882530881,126206.0,141458.0,11619.0
1679065882540881,126140.0,141245.0,11650.0
1679065882550881,126217.0,141322.0,11617.0
1679065882560881,126316.0,141511.0,11643.0
1679065882570881,126373.0,141566.0,11648.0
1679065882580881,126481.0,141827.0,11616.0
1679065882590881,126485.0,142263.0,11556.0
1679065882600881,126376.0,142533.0,11491.0
1679065882610881,126222.0,142535.0,11440.0
1679065882620881,126125.0,142547.0,11419.0
1679065882629881,126016.0,142464.0,11407.0
1679065882640881,125902.0,142150.0,11414.0
1679065882650881,125665.0,141687.0,11451.0
1679065882660881,125477.0,141245.0,11422.0
1679065882669881,125187.0,140540.0,11502.0
1679065882680881,124885.0,139551.0,11547.0
1679065882690881,124697.0,139006.0,11577.0
1679065882700881,124735.0,139019.0,11602.0
1679065882710881,124850.0,139172.0,11590.0
1679065882719881,124955.0,139318.0,11634.0
1679065882730881,125163.0,139546.0,11657.0
1679065882740881,125346.0,139635.0,11689.0
1679065882751881,125515.0,139772.0,11715.0
1679065882759880,125692.0,139961.0,11724.0
1679065882770880,125804.0,140158.0,11733.0
1679065882780880,125950.0,140393.0,11728.0
1679065882791880,126189.0,140898.0,11721.0
1679065882799880,126475.0,141738.0,11678.0
1679065882810880,126660.0,142551.0,11631.0
1679065882820880,126687.0,142913.0,11582.0
1679065882830880,126660.0,143032.0,11519.0
1679065882840880,126569.0,143036.0,11514.0
1679065882850880,126457.0,143065.0,11510.0
1679065882860881,126250.0,143094.0,11460.0
1679065882870881,125990.0,142862.0,11392.0
1679065882880881,125731.0,142527.0,11410.0
1679065882890881,125703.0,142250.0,11438.0
1679065882900881,125735.0,142406.0,11423.0
1679065882910881,125750.0,142738.0,11375.0
1679065882919881,125659.0,143122.0,11316.0
1679065882930881,125680.0,143387.0,11273.0
1679065882940881,125474.0,143537.0,11209.0
1679065882951881,125230.0,143462.0,11172.0
1679065882960881,125157.0,143253.0,11186.0
1679065882969881,125215.0,143151.0,11215.0
1679065882980881,125294.0,143153.0,11249.0
1679065882990881,125283.0,143155.0,11245.0
1679065883001881,125284.0,143041.0,11276.0
1679065883009880,125391.0,142961.0,11288.0
1679065883019880,125466.0,143009.0,11305.0
1679065883030880,125559.0,143059.0,11303.0
1679065883040881,125623.0,142972.0,11354.0
1679065883050881,125747.0,142782.0,11373.0
1679065883059881,125782.0,142661.0,11475.0
1679065883070881,125839.0,142477.0,11520.0
1679065883080881,125941.0,142188.0,11562.0
1679065883089881,125925.0,141915.0,11581.0
1679065883100881,125913.0,141653.0,11606.0
1679065883110881,125759.0,141254.0,11637.0
1679065883120881,125591.0,140878.0,11636.0
1679065883129881,125396.0,140514.0,11642.0
1679065883140881,125258.0,140201.0,11642.0
1679065883150881,125161.0,139978.0,11634.0
1679065883160881,125147.0,139990.0,11630.0
1679065883169881,125171.0,140146.0,11619.0
1679065883179881,125220.0,140437.0,11596.0
1679065883190881,125271.0,140640.0,11531.0
1679065883199881,125264.0,140852.0,11504.0
1679065883210881,125269.0,141024.0,11447.0
1679065883219881,125257.0,141141.0,11446.0
1679065883230881,125270.0,141244.0,11450.0
1679065883240881,125317.0,141412.0,11439.0
1679065883250881,125331.0,141697.0,11413.0
1679065883259881,125299.0,141998.0,11355.0
1679065883270881,125267.0,142245.0,11313.0
1679065883280881,125288.0,142477.0,11312.0
1679065883290881,125390.0,142579.0,11334.0
1679065883299881,125507.0,142703.0,11341.0
1679065883309881,125665.0,142838.0,11344.0
1679065883320881,125819.0,142922.0,11408.0
1679065883330881,125953.0,142894.0,11469.0
1679065883339881,126081.0,142813.0,11511.0
1679065883349881,126024.0,142749.0,11532.0
1679065883360880,126003.0,142711.0,11524.0
1679065883370880,125962.0,142622.0,11523.0
1679065883379881,125879.0,142558.0,11513.0
1679065883389881,125860.0,142684.0,11504.0
1679065883400881,125891.0,142974.0,11472.0
1679065883410881,125841.0,143215.0,11401.0
1679065883419881,125751.0,143379.0,11337.0
1679065883429881,125616.0,143581.0,11281.0
1679065883440881,125486.0,143861.0,11226.0
1679065883450881,125407.0,143844.0,11209.0
1679065883460881,125361.0,143648.0,11215.0
1679065883469881,125303.0,143349.0,11198.0
1679065883479881,125189.0,142850.0,11239.0
1679065883490881,125130.0,142381.0,11314.0
1679065883500881,125065.0,142014.0,11337.0
1679065883509881,125039.0,141694.0,11370.0
1679065883519881,125064.0,141629.0,11383.0
1679065883530881,125098.0,141658.0,11405.0
1679065883540881,125161.0,141595.0,11424.0
1679065883549881,125220.0,141593.0,11445.0
1679065883559881,125244.0,141556.0,11447.0
1679065883570881,125244.0,141596.0,11463.0
1679065883580881,125236.0,141647.0,11460.0
1679065883589881,125296.0,141695.0,11461.0
1679065883600881,125309.0,141753.0,11488.0
1679065883609881,125358.0,141896.0,11471.0
1679065883620881,125469.0,142092.0,11483.0
1679065883629881,125538.0,141994.0,11511.0
1679065883639881,125580.0,141952.0,11504.0
1679065883650881,125597.0,141959.0,11532.0
1679065883659881,125649.0,142048.0,11526.0
1679065883669881,125706.0,142087.0,11549.0
1679065883679881,125749.0,142099.0,11546.0
1679065883690881,125815.0,142151.0,11556.0
1679065883699881,125855.0,142199.0,11544.0
1679065883710881,125853.0,142212.0,11547.0
1679065883719881,125815.0,142180.0,11539.0
1679065883729881,125820.0,142224.0,11498.0
1679065883740881,125838.0,142246.0,11492.0
1679065883749881,125818.0,142312.0,11517.0
1679065883759881,125815.0,142325.0,11537.0
1679065883769881,125907.0,142329.0,11526.0
1679065883780881,125937.0,142346.0,11563.0
1679065883790881,125997.0,142370.0,11568.0
1679065883799881,125992.0,142398.0,11571.0
1679065883810881,125993.0,142341.0,11584.0
1679065883819881,126052.0,142342.0,11575.0
1679065883830881,126078.0,142508.0,11576.0
1679065883839881,126126.0,142705.0,11553.0
1679065883850880,126139.0,142841.0,11545.0
1679065883859881,126140.0,142955.0,11532.0
1679065883870880,126126.0,143015.0,11496.0
1679065883879881,126084.0,142856.0,11533.0
1679065883889881,126091.0,142752.0,11558.0
1679065883899881,126130.0,142751.0,11561.0
1679065883910880,126286.0,142673.0,11614.0
1679065883919880,126405.0,142595.0,11661.0
1679065883929880,126484.0,142530.0,11677.0
1679065883939881,126612.0,142693.0,11670.0
1679065883949881,126694.0,142907.0,11661.0
1679065883960881,126747.0,143171.0,11655.0
1679065883969881,126785.0,143401.0,11619.0
1679065883979881,126781.0,143447.0,11602.0
1679065883989881,126645.0,143283.0,11632.0
1679065884000881,126606.0,143050.0,11636.0
1679065884009881,126595.0,142978.0,11629.0
1679065884019881,126541.0,142867.0,11632.0
1679065884029881,126598.0,142919.0,11632.0
1679065884039881,126706.0,143250.0,11614.0
1679065884049881,126799.0,143990.0,11527.0
1679065884059881,126750.0,144272.0,11483.0
1679065884069881,126707.0,144141.0,11488.0
1679065884079881,126665.0,143868.0,11555.0
1679065884089881,126622.0,143611.0,11566.0
1679065884099881,126561.0,143340.0,11582.0
1679065884109881,126471.0,143071.0,11572.0
1679065884119881,126313.0,142756.0,11593.0
1679065884129881,126209.0,142542.0,11604.0
1679065884139881,126149.0,142439.0,11613.0
1679065884150881,126120.0,142369.0,11612.0
1679065884159881,126110.0,142347.0,11608.0
1679065884169881,126127.0,142453.0,11607.0
1679065884179881,126162.0,142658.0,11560.0
1679065884189881,126191.0,142823.0,11545.0
1679065884199881,126162.0,142935.0,11518.0
1679065884209881,126152.0,142956.0,11522.0
1679065884219881,126168.0,142940.0,11537.0
1679065884229881,126168.0,142992.0,11552.0
1679065884239881,126213.0,143021.0,11555.0
1679065884249881,126223.0,143090.0,11551.0
1679065884259881,126248.0,143069.0,11554.0
1679065884269881,126249.0,142960.0,11544.0
1679065884279881,126231.0,142948.0,11562.0
1679065884289881,126213.0,142832.0,11576.0
1679065884299881,126164.0,142782.0,11553.0
1679065884309881,126130.0,142713.0,11554.0
1679065884319881,126091.0,142660.0,11516.0
1679065884330881,126023.0,142624.0,11555.0
1679065884338881,125966.0,142560.0,11541.0
1679065884349881,125964.0,142500.0,11554.0
1679065884359881,125933.0,142473.0,11540.0
1679065884369881,125871.0,142333.0,11560.0
1679065884379881,125917.0,142265.0,11505.0
1679065884388881,125886.0,142304.0,11558.0
1679065884399881,125864.0,142405.0,11546.0
1679065884409881,125896.0,142524.0,11529.0
1679065884419880,125935.0,142709.0,11504.0
1679065884429880,125921.0,142891.0,11478.0
1679065884439880,125908.0,143055.0,11463.0
1679065884449880,125892.0,143209.0,11432.0
1679065884460880,125878.0,143294.0,11414.0
1679065884468880,125844.0,143244.0,11405.0
1679065884479881,125831.0,143271.0,11418.0
1679065884489881,125868.0,143247.0,11444.0
1679065884499881,125967.0,143312.0,11458.0
1679065884509881,126128.0,143492.0,11425.0
1679065884518881,126275.0,143705.0,11461.0
1679065884529881,126456.0,143965.0,11468.0
1679065884539881,126587.0,144160.0,11507.0
1679065884548881,126808.0,144408.0,11504.0
1679065884559881,126901.0,144574.0,11490.0
1679065884569881,126934.0,144698.0,11502.0
1679065884579881,126921.0,144693.0,11508.0
1679065884588881,126898.0,144650.0,11496.0
1679065884599881,126833.0,144589.0,11493.0
1679065884609881,126736.0,144437.0,11503.0
1679065884619881,126669.0,144307.0,11496.0
1679065884628881,126613.0,144194.0,11505.0
1679065884639881,126542.0,144050.0,11503.0
1679065884649881,126528.0,143917.0,11496.0
1679065884660881,126493.0,143835.0,11501.0
1679065884669881,126483.0,143754.0,11518.0
1679065884678881,126463.0,143688.0,11534.0
1679065884689881,126447.0,143604.0,11511.0
1679065884699881,126404.0,143540.0,11489.0
1679065884710881,126339.0,143463.0,11494.0
1679065884718881,126271.0,143309.0,11519.0
1679065884729880,126259.0,143227.0,11523.0
1679065884739880,126227.0,143189.0,11515.0
1679065884750880,126189.0,143161.0,11521.0
1679065884758880,126172.0,143142.0,11510.0
1679065884769880,126136.0,143160.0,11510.0
1679065884779880,126111.0,143103.0,11511.0
1679065884790880,126136.0,143107.0,11510.0
1679065884798880,126107.0,143111.0,11497.0
1679065884809880,126079.0,143132.0,11498.0
1679065884819880,126084.0,143153.0,11484.0
1679065884829880,126073.0,143152.0,11487.0
1679065884839881,126054.0,143155.0,11487.0
1679065884848881,126000.0,143135.0,11486.0
1679065884859881,126037.0,143117.0,11470.0
1679065884869881,126013.0,143097.0,11469.0
1679065884879881,126006.0,143139.0,11460.0
1679065884889881,125968.0,143146.0,11455.0
1679065884898881,125938.0,143154.0,11425.0
1679065884909881,125944.0,143178.0,11419.0
1679065884919881,125933.0,143148.0,11441.0
1679065884929881,125943.0,143141.0,11449.0
1679065884938881,125936.0,143100.0,11443.0
1679065884949881,125940.0,143084.0,11464.0
1679065884959881,125957.0,143028.0,11476.0
1679065884969881,125955.0,143003.0,11482.0
1679065884979881,125991.0,142976.0,11484.0
1679065884989881,125960.0,142888.0,11483.0
1679065884999881,125966.0,142908.0,11484.0
1679065885008881,125962.0,142908.0,11492.0
1679065885019881,125959.0,142944.0,11484.0
1679065885029881,125972.0,142953.0,11470.0
1679065885039881,125901.0,142951.0,11489.0
1679065885048881,125915.0,142953.0,11486.0
1679065885059881,125936.0,142891.0,11475.0
1679065885069881,125930.0,142872.0,11479.0
1679065885079881,125911.0,142942.0,11466.0
1679065885088881,125894.0,142901.0,11447.0
1679065885098881,125880.0,142879.0,11446.0
1679065885109881,125860.0,142891.0,11429.0
1679065885119881,125801.0,142905.0,11436.0
1679065885128881,125786.0,142894.0,11439.0
1679065885138881,125831.0,142993.0,11444.0
1679065885149881,125898.0,143159.0,11448.0
1679065885159881,125987.0,143362.0,11450.0
1679065885169881,126154.0,143552.0,11446.0
1679065885178881,126298.0,143770.0,11449.0
