time,ecg,hr,rr,marker
1679515444072438658,-0.106,56
1679515444080135534,-0.10200000000000001
1679515444087832410,-0.112
1679515444095529286,-0.106
1679515444103226162,-0.083
1679515444110923038,-0.064
1679515444118619914,-0.066
1679515444126316790,-0.085
1679515444134013666,-0.12
1679515444141710542,-0.158
1679515444149407418,-0.197
1679515444157104294,-0.231
1679515444164801170,-0.227
1679515444172498046,-0.216
1679515444180194922,-0.225
1679515444187891798,-0.218
1679515444195588674,-0.189
1679515444203285550,-0.154
1679515444210982426,-0.154
1679515444218679302,-0.193
1679515444226376178,-0.191
1679515444234073054,-0.158
1679515444241769930,-0.17
1679515444249466806,-0.17500000000000002
1679515444257163682,-0.137
1679515444264860558,-0.135
1679515444272557434,-0.154
1679515444280254310,-0.137
1679515444287951186,-0.106
1679515444295648062,-0.08700000000000001
1679515444303344938,-0.079
1679515444311041814,-0.07200000000000001
1679515444318738690,-0.06
1679515444326435566,-0.054
1679515444334132442,-0.066
1679515444341829318,0.004
1679515444349526194,0.28700000000000003
1679515444357223070,0.747
1679515444364919946,1.075
1679515444372616822,0.843
1679515444380313698,0.095
1679515444388010574,-0.531
1679515444395707450,-0.595
1679515444403404326,-0.325
1679515444411101202,-0.12
1679515444418798078,-0.07
1679515444426494954,-0.05
1679515444434191830,-0.006
1679515444441888706,0.018000000000000002
1679515444449585582,0.014
1679515444457282458,0.025
1679515444464979334,0.06
1679515444472676210,0.093
1679515444480373086,0.10200000000000001
1679515444488069962,0.11
1679515444495766838,0.129
1679515444503463714,0.14100000000000001
1679515444511160590,0.147
1679515444518857466,0.164
1679515444526554342,0.193
1679515444534251218,0.214
1679515444541948094,0.21
1679515444549644970,0.216
1679515444557341846,0.245
1679515444565038722,0.26
1679515444572735598,0.262
1679515444580432474,0.28500000000000003
1679515444588129350,0.314
1679515444595826226,0.335
1679515444603523102,0.352
1679515444611219978,0.385
1679515444618916854,0.422
1679515444626613730,0.422
1679515444634310642,0.387
1679515444642007936,0.379
1679515444649705230,0.393
1679515444657402524,0.37
1679515444665099818,0.316
1679515444672797112,0.266
1679515444680494406,0.202
1679515444688191700,0.097
1679515444695888994,0.002
1679515444703586288,-0.018000000000000002
1679515444711283582,-0.029
1679515444718980876,-0.108
1679515444726678170,-0.177
1679515444734375464,-0.156
1679515444742072758,-0.12
1679515444749770052,-0.125
1679515444757467346,-0.112
1679515444765164640,-0.081
1679515444772861934,-0.077
1679515444780559228,-0.077
1679515444788256522,-0.043000000000000003
1679515444795953816,-0.008
1679515444803651110,0.0
1679515444811348404,0.0
1679515444819045698,0.006
1679515444826742992,0.027
1679515444834440286,0.045
1679515444842137580,0.047
1679515444849834874,0.06
1679515444857532168,0.083
1679515444865229462,0.081
1679515444872926756,0.05,,1063
1679515444880624050,0.031
1679515444888321344,0.047
1679515444896018638,0.06
1679515444903715932,0.045
1679515444911413226,0.043000000000000003
1679515444919110520,0.06
1679515444926807814,0.07
1679515444934505108,0.075
1679515444942202402,0.093
1679515444949899696,0.112
1679515444957596990,0.097
1679515444965294284,0.083
1679515444972991578,0.106
1679515444980688872,0.135
1679515444988386166,0.137
1679515444996083460,0.129
1679515445003780754,0.11
1679515445011478048,0.075
1679515445019175342,0.056
1679515445026872636,0.058
1679515445034569930,0.058
1679515445042267224,0.027
1679515445049964518,-0.027
1679515445057661812,-0.07
1679515445065359106,-0.091
1679515445073056400,-0.106
1679515445080753694,-0.116
1679515445088450988,-0.116
1679515445096148282,-0.11800000000000001
1679515445103845576,-0.131
1679515445111542870,-0.147
1679515445119240164,-0.17500000000000002
1679515445126937458,-0.197
1679515445134634752,-0.20800000000000002
1679515445142332046,-0.22
1679515445150029340,-0.216
1679515445157726634,-0.191
1679515445165423928,-0.179
1679515445173121222,-0.177
1679515445180818516,-0.16
1679515445188515810,-0.147
1679515445196213144,-0.152,56
1679515445203910020,-0.139
1679515445211606896,-0.131
1679515445219303772,-0.179
1679515445227000648,-0.254
1679515445234697524,-0.277
1679515445242394400,-0.252
1679515445250091276,-0.23500000000000001
1679515445257788152,-0.264
1679515445265485028,-0.302
1679515445273181904,-0.291
1679515445280878780,-0.277
1679515445288575656,-0.28700000000000003
1679515445296272532,-0.277
1679515445303969408,-0.241
1679515445311666284,-0.216
1679515445319363160,-0.20400000000000001
1679515445327060036,-0.185
1679515445334756912,-0.145
1679515445342453788,-0.1
1679515445350150664,-0.085
1679515445357847540,-0.10200000000000001
1679515445365544416,-0.127
1679515445373241292,-0.166
1679515445380938168,-0.193
1679515445388635044,-0.179
1679515445396331920,-0.156
1679515445404028796,-0.14300000000000002
1679515445411725672,-0.133
1679515445419422548,-0.122
1679515445427119424,-0.1
1679515445434816300,-0.075
1679515445442513176,-0.077
1679515445450210052,-0.081
1679515445457906928,0.025
1679515445465603804,0.339
1679515445473300680,0.804
1679515445480997556,1.064
1679515445488694432,0.725
1679515445496391308,-0.014
1679515445504088184,-0.493
1679515445511785060,-0.425
1679515445519481936,-0.129
1679515445527178812,0.012
1679515445534875688,0.027
1679515445542572564,0.062
1679515445550269440,0.1
1679515445557966316,0.089
1679515445565663192,0.083
1679515445573360068,0.114
1679515445581056944,0.14300000000000002
1679515445588753820,0.152
1679515445596450696,0.154
1679515445604147572,0.158
1679515445611844448,0.135
1679515445619541324,0.095
1679515445627238200,0.089
1679515445634935076,0.122
1679515445642631952,0.14100000000000001
1679515445650328828,0.129
1679515445658025704,0.127
1679515445665722580,0.158
1679515445673419456,0.191
1679515445681116332,0.20400000000000001
1679515445688813208,0.222
1679515445696510084,0.254
1679515445704206960,0.281
1679515445711903836,0.304
1679515445719600712,0.325
1679515445727297588,0.308
1679515445734994464,0.252
1679515445742691340,0.227
1679515445750388216,0.252
1679515445758085128,0.272
1679515445765782004,0.264
1679515445773478880,0.23700000000000002
1679515445781175756,0.202
1679515445788872632,0.139
1679515445796569508,0.039
1679515445804266384,-0.056
1679515445811963260,-0.091
1679515445819660136,-0.089
1679515445827357012,-0.11
1679515445835053888,-0.139
1679515445842750764,-0.127
1679515445850447640,-0.10200000000000001
1679515445858144516,-0.112
1679515445865841392,-0.122
1679515445873538268,-0.091
1679515445881235144,-0.068
1679515445888932020,-0.075
1679515445896628896,-0.062
1679515445904325772,-0.022
1679515445912022648,0.0
1679515445919719524,-0.002
1679515445927416400,-0.006
1679515445935113276,0.012
1679515445942810152,0.039
1679515445950507028,0.052000000000000005,,1075
1679515445958203904,0.064
1679515445965900780,0.089
1679515445973597656,0.093
1679515445981294532,0.079
1679515445988991408,0.089
1679515445996688284,0.122
1679515446004385160,0.14100000000000001
1679515446012082036,0.133
1679515446019778912,0.125
1679515446027475788,0.137
1679515446035172664,0.147
1679515446042869540,0.147
1679515446050566416,0.164
1679515446058263292,0.187
1679515446065960168,0.177
1679515446073657044,0.154
1679515446081353920,0.133
1679515446089050796,0.11800000000000001
1679515446096747672,0.11800000000000001
1679515446104444548,0.093
1679515446112141424,0.022
1679515446119838300,-0.031
1679515446127535176,-0.054
1679515446135232052,-0.093
1679515446142928928,-0.122
1679515446150625804,-0.12
1679515446158322680,-0.139
1679515446166019556,-0.166
1679515446173716432,-0.152
1679515446181413308,-0.133
1679515446189110184,-0.137
1679515446196807060,-0.14100000000000001
1679515446204503936,-0.133
1679515446212200812,-0.133
1679515446219897688,-0.14300000000000002
1679515446227594564,-0.191
1679515446235291440,-0.247
1679515446242988316,-0.256
1679515446250685192,-0.25
1679515446258382068,-0.252
1679515446266078944,-0.229
1679515446273775820,-0.195
1679515446281472696,-0.17
1679515446289169572,-0.147
1679515446296866448,-0.137
1679515446304563324,-0.137
1679515446312260200,-0.129
1679515446319957112,-0.106,56
1679515446327654406,-0.077
1679515446335351700,-0.068
1679515446343048994,-0.091
1679515446350746288,-0.122
1679515446358443582,-0.139
1679515446366140876,-0.166
1679515446373838170,-0.212
1679515446381535464,-0.218
1679515446389232758,-0.197
1679515446396930052,-0.202
1679515446404627346,-0.197
1679515446412324640,-0.162
1679515446420021934,-0.137
1679515446427719228,-0.137
1679515446435416522,-0.139
1679515446443113816,-0.129
1679515446450811110,-0.108
1679515446458508404,-0.091
1679515446466205698,-0.064
1679515446473902992,-0.025
1679515446481600286,0.008
1679515446489297580,0.029
1679515446496994874,0.045
1679515446504692168,0.066
1679515446512389462,0.091
1679515446520086756,0.091
1679515446527784050,0.07200000000000001
1679515446535481344,0.075
1679515446543178638,0.093
1679515446550875932,0.10200000000000001
1679515446558573226,0.11
1679515446566270520,0.122
1679515446573967814,0.12
1679515446581665108,0.10400000000000001
1679515446589362402,0.085
1679515446597059696,0.054
1679515446604756990,0.11
1679515446612454284,0.418
1679515446620151578,0.889
1679515446627848872,1.1
1679515446635546166,0.7020000000000001
1679515446643243460,-0.037
1679515446650940754,-0.46
1679515446658638048,-0.352
1679515446666335342,-0.08700000000000001
1679515446674032636,0.02
1679515446681729930,0.05
1679515446689427224,0.097
1679515446697124518,0.114
1679515446704821812,0.108
1679515446712519106,0.122
1679515446720216400,0.145
1679515446727913694,0.166
1679515446735610988,0.154
1679515446743308282,0.106
1679515446751005576,0.08700000000000001
1679515446758702870,0.093
1679515446766400164,0.089
1679515446774097458,0.10400000000000001
1679515446781794752,0.137
1679515446789492046,0.145
1679515446797189340,0.147
1679515446804886634,0.166
1679515446812583928,0.185
1679515446820281222,0.195
1679515446827978516,0.222
1679515446835675810,0.26
1679515446843373104,0.256
1679515446851070398,0.214
1679515446858767692,0.222
1679515446866464986,0.28300000000000003
1679515446874162280,0.325
1679515446881859616,0.343
1679515446889556492,0.372
1679515446897253368,0.393
1679515446904950244,0.389
1679515446912647120,0.372
1679515446920343996,0.354
1679515446928040872,0.331
1679515446935737748,0.281
1679515446943434624,0.20600000000000002
1679515446951131500,0.158
1679515446958828376,0.145
1679515446966525252,0.095
1679515446974222128,0.016
1679515446981919004,-0.006
1679515446989615880,0.004
1679515446997312756,-0.008
1679515447005009632,-0.012
1679515447012706508,0.016
1679515447020403384,0.043000000000000003,,1071
1679515447028100260,0.043000000000000003
1679515447035797136,0.035
1679515447043494012,0.052000000000000005
1679515447051190888,0.085
1679515447058887764,0.10400000000000001
1679515447066584640,0.108
1679515447074281516,0.122
1679515447081978392,0.127
1679515447089675268,0.10200000000000001
1679515447097372144,0.085
1679515447105069020,0.10400000000000001
1679515447112765896,0.122
1679515447120462772,0.112
1679515447128159648,0.097
1679515447135856524,0.11
1679515447143553400,0.11800000000000001
1679515447151250276,0.08700000000000001
1679515447158947152,0.056
1679515447166644028,0.064
1679515447174340904,0.058
1679515447182037780,0.014
1679515447189734656,-0.02
1679515447197431532,-0.031
1679515447205128408,-0.056
1679515447212825284,-0.108
1679515447220522160,-0.133
1679515447228219036,-0.122
1679515447235915912,-0.12
1679515447243612788,-0.16
1679515447251309664,-0.218
1679515447259006540,-0.243
1679515447266703416,-0.245
1679515447274400292,-0.256
1679515447282097168,-0.241
1679515447289794044,-0.212
1679515447297490920,-0.20800000000000002
1679515447305187796,-0.212
1679515447312884672,-0.202
1679515447320581548,-0.177
1679515447328278424,-0.162
1679515447335975300,-0.177
1679515447343672176,-0.191
1679515447351369052,-0.183
1679515447359065928,-0.185
1679515447366762804,-0.185
1679515447374459680,-0.15
1679515447382156556,-0.12
1679515447389853432,-0.116
1679515447397550308,-0.106
1679515447405247184,-0.089
1679515447412944060,-0.081
1679515447420640936,-0.07200000000000001
1679515447428337812,-0.056
1679515447436034688,-0.027
1679515447443731600,-0.006,56
1679515447451428476,-0.014
1679515447459125352,-0.014
1679515447466822228,0.018000000000000002
1679515447474519104,0.039
1679515447482215980,0.043000000000000003
1679515447489912856,0.058
1679515447497609732,0.064
1679515447505306608,0.033
1679515447513003484,-0.014
1679515447520700360,-0.022
1679515447528397236,0.006
1679515447536094112,0.008
1679515447543790988,-0.012
1679515447551487864,-0.002
1679515447559184740,0.027
1679515447566881616,0.031
1679515447574578492,0.016
1679515447582275368,-0.01
1679515447589972244,-0.05
1679515447597669120,-0.075
1679515447605365996,-0.068
1679515447613062872,-0.041
1679515447620759748,-0.002
1679515447628456624,0.02
1679515447636153500,0.035
1679515447643850376,0.064
1679515447651547252,0.075
1679515447659244128,0.062
1679515447666941004,0.077
1679515447674637880,0.10400000000000001
1679515447682334756,0.097
1679515447690031632,0.077
1679515447697728508,0.085
1679515447705425384,0.116
1679515447713122260,0.137
1679515447720819136,0.14300000000000002
1679515447728516012,0.147
1679515447736212888,0.154
1679515447743909764,0.14100000000000001
1679515447751606640,0.108
1679515447759303516,0.191
1679515447767000392,0.558
1679515447774697268,1.035
1679515447782394144,1.118
1679515447790091020,0.5680000000000001
1679515447797787896,-0.14300000000000002
1679515447805484772,-0.468
1679515447813181648,-0.383
1679515447820878524,-0.156
1679515447828575400,-0.029
1679515447836272276,-0.025
1679515447843969152,-0.02
1679515447851666028,0.02
1679515447859362904,0.041
1679515447867059780,0.035
1679515447874756656,0.037
1679515447882453532,0.066
1679515447890150408,0.095
1679515447897847284,0.10400000000000001
1679515447905544160,0.112
1679515447913241036,0.129
1679515447920937912,0.145
1679515447928634788,0.156
1679515447936331664,0.17200000000000001
1679515447944028540,0.2
1679515447951725416,0.227
1679515447959422292,0.233
1679515447967119168,0.23900000000000002
1679515447974816044,0.272
1679515447982512920,0.306
1679515447990209796,0.316
1679515447997906672,0.329
1679515448005603584,0.354,56
1679515448013300460,0.383
1679515448020997336,0.41000000000000003
1679515448028694212,0.441
1679515448036391088,0.483
1679515448044087964,0.512
1679515448051784840,0.502
1679515448059481716,0.47900000000000004
1679515448067178592,0.47500000000000003
1679515448074875468,0.404
1679515448082572344,0.25
1679515448090269220,0.14100000000000001,,1071
1679515448097966096,0.10200000000000001
1679515448105662972,0.043000000000000003
1679515448113359848,-0.01
1679515448121056724,-0.014
1679515448128753600,-0.004
1679515448136450476,-0.02
1679515448144147352,-0.045
1679515448151844228,-0.052000000000000005
1679515448159541104,-0.037
1679515448167237980,-0.02
1679515448174934856,-0.01
1679515448182631732,0.012
1679515448190328608,0.035
1679515448198025484,0.062
1679515448205722360,0.097
1679515448213419236,0.116
1679515448221116112,0.10400000000000001
1679515448228812988,0.068
1679515448236509864,0.037
1679515448244206740,0.037
1679515448251903616,0.029
1679515448259600492,-0.047
1679515448267297368,-0.122
1679515448274994244,-0.139
1679515448282691120,-0.177
1679515448290387996,-0.227
1679515448298084872,-0.222
1679515448305781748,-0.197
1679515448313478624,-0.20600000000000002
1679515448321175500,-0.243
1679515448328872376,-0.272
1679515448336569252,-0.258
1679515448344266128,-0.245
1679515448351963004,-0.258
1679515448359659880,-0.247
1679515448367356756,-0.218
1679515448375053632,-0.218
1679515448382750508,-0.218
1679515448390447384,-0.185
1679515448398144260,-0.154
1679515448405841136,-0.152
1679515448413538012,-0.154
1679515448421234888,-0.145
1679515448428931764,-0.135
1679515448436628640,-0.129
1679515448444325516,-0.11800000000000001
1679515448452022392,-0.091
1679515448459719268,-0.068
1679515448467416144,-0.077
1679515448475113020,-0.079
1679515448482809896,-0.052000000000000005
1679515448490506772,-0.022
1679515448498203648,-0.008
1679515448505900524,0.0
1679515448513597400,0.006
1679515448521294276,0.008
1679515448528991152,0.014
1679515448536688028,0.031
1679515448544384904,0.058
1679515448552081780,0.083
1679515448559778656,0.077
1679515448567475568,0.039
1679515448575172444,0.012
1679515448582869320,0.018000000000000002
1679515448590566196,0.025
1679515448598263072,0.022
1679515448605959948,0.031
1679515448613656824,0.014
1679515448621353700,-0.045
1679515448629050576,-0.093
1679515448636747452,-0.097
1679515448644444328,-0.097
1679515448652141204,-0.11
1679515448659838080,-0.095
1679515448667534956,-0.052000000000000005
1679515448675231832,0.0
1679515448682928708,0.035
1679515448690625584,0.039
1679515448698322460,0.025
1679515448706019336,0.01
1679515448713716212,0.01
1679515448721413088,0.05
1679515448729109964,0.095
1679515448736806840,0.1
1679515448744503716,0.079
1679515448752200592,0.095
1679515448759897468,0.131
1679515448767594344,0.068
1679515448775291220,-0.014
1679515448782988096,0.016
1679515448790684972,0.041
1679515448798381848,-0.008
1679515448806078724,-0.029
1679515448813775600,-0.027
1679515448821472476,-0.056
1679515448829169352,-0.10200000000000001
1679515448836866228,-0.129
1679515448844563104,-0.106
1679515448852259980,-0.07200000000000001
1679515448859956856,-0.081
1679515448867653732,-0.079
1679515448875350608,0.05
1679515448883047484,0.387
1679515448890744360,0.837
1679515448898441236,1.031
1679515448906138112,0.633
1679515448913834988,-0.081
1679515448921531864,-0.495
1679515448929228740,-0.397
1679515448936925616,-0.106
1679515448944622492,0.029
1679515448952319368,0.035
1679515448960016244,0.066
1679515448967713120,0.106
1679515448975409996,0.10200000000000001
1679515448983106872,0.1
1679515448990803748,0.129
1679515448998500624,0.162
1679515449006197500,0.17500000000000002
1679515449013894376,0.179
1679515449021591252,0.185
1679515449029288128,0.2
1679515449036985004,0.214
1679515449044681880,0.222
1679515449052378756,0.231
1679515449060075632,0.214
1679515449067772508,0.162
1679515449075469384,0.145
1679515449083166260,0.179
1679515449090863136,0.20800000000000002
1679515449098560012,0.216
1679515449106256888,0.229
1679515449113953764,0.252
1679515449121650640,0.279
1679515449129347552,0.304,56
1679515449137044846,0.331
1679515449144742140,0.37
1679515449152439434,0.393
1679515449160136728,0.352
1679515449167834022,0.3
1679515449175531316,0.308
1679515449183228610,0.322
1679515449190925904,0.28500000000000003
1679515449198623198,0.231
1679515449206320492,0.183,,1114
1679515449214017786,0.131
1679515449221715080,0.085
1679515449229412374,0.066
1679515449237109668,0.062
1679515449244806962,0.052000000000000005
1679515449252504256,0.029
1679515449260201550,0.025
1679515449267898844,0.014
1679515449275596138,-0.052000000000000005
1679515449283293432,-0.10400000000000001
1679515449290990726,-0.085
1679515449298688020,-0.077
1679515449306385314,-0.112
1679515449314082608,-0.122
1679515449321779902,-0.091
1679515449329477196,-0.07
1679515449337174490,-0.097
1679515449344871784,-0.135
1679515449352569078,-0.125
1679515449360266372,-0.095
1679515449367963666,-0.112
1679515449375660960,-0.15
1679515449383358254,-0.164
1679515449391055548,-0.195
1679515449398752842,-0.252
1679515449406450136,-0.262
1679515449414147430,-0.23700000000000002
1679515449421844724,-0.229
1679515449429542018,-0.243
1679515449437239312,-0.254
1679515449444936606,-0.241
1679515449452633900,-0.225
1679515449460331194,-0.22
1679515449468028488,-0.21
1679515449475725782,-0.191
1679515449483423076,-0.189
1679515449491120370,-0.197
1679515449498817664,-0.181
1679515449506514958,-0.147
1679515449514212252,-0.131
1679515449521909546,-0.135
1679515449529606840,-0.137
1679515449537304134,-0.116
1679515449545001428,-0.097
1679515449552698722,-0.112
1679515449560396016,-0.131
1679515449568093310,-0.125
1679515449575790604,-0.129
1679515449583487898,-0.14300000000000002
1679515449591185192,-0.122
1679515449598882486,-0.085
1679515449606579780,-0.075
1679515449614277074,-0.083
1679515449621974368,-0.07200000000000001
1679515449629671662,-0.054
1679515449637368956,-0.047
1679515449645066250,-0.039
1679515449652763544,-0.01
1679515449660460838,0.01
1679515449668158132,-0.002
1679515449675855426,-0.004
1679515449683552720,0.027
1679515449691250054,0.054
1679515449698946930,0.056
1679515449706643806,0.056
1679515449714340682,0.062
1679515449722037558,0.062
1679515449729734434,0.022
1679515449737431310,-0.014
1679515449745128186,0.002
1679515449752825062,0.02
1679515449760521938,-0.002
1679515449768218814,-0.006
1679515449775915690,0.0
1679515449783612566,-0.054
1679515449791309442,-0.129
1679515449799006318,-0.16
1679515449806703194,-0.179
1679515449814400070,-0.187
1679515449822096946,-0.17500000000000002
1679515449829793822,-0.158
1679515449837490698,-0.139
1679515449845187574,-0.127
1679515449852884450,-0.122
1679515449860581326,-0.097
1679515449868278202,-0.045
1679515449875975078,-0.002
1679515449883671954,0.018000000000000002
1679515449891368830,0.014
1679515449899065706,0.014
1679515449906762582,0.02
1679515449914459458,0.022
1679515449922156334,0.035
1679515449929853210,0.058
1679515449937550086,0.062
1679515449945246962,0.054
1679515449952943838,0.07200000000000001
1679515449960640714,0.10200000000000001
1679515449968337590,0.108
1679515449976034466,0.1
1679515449983731342,0.10200000000000001
1679515449991428218,0.181
1679515449999125094,0.45
1679515450006821970,0.889
1679515450014518846,1.162
1679515450022215722,0.866
1679515450029912598,0.162
1679515450037609474,-0.34700000000000003
1679515450045306350,-0.368
1679515450053003226,-0.133
1679515450060700102,0.022
1679515450068396978,0.05
1679515450076093854,0.068
1679515450083790730,0.08700000000000001
1679515450091487606,0.083
1679515450099184482,0.1
1679515450106881358,0.139
1679515450114578234,0.158
1679515450122275110,0.16
1679515450129971986,0.164
1679515450137668862,0.181
1679515450145365738,0.195
1679515450153062614,0.202
1679515450160759490,0.218
1679515450168456366,0.245
1679515450176153242,0.247
1679515450183850118,0.23700000000000002
1679515450191546994,0.256
1679515450199243870,0.291
1679515450206940746,0.306
1679515450214637622,0.312
1679515450222334498,0.329
1679515450230031374,0.34700000000000003
1679515450237728250,0.368
1679515450245425126,0.389
1679515450253122040,0.427,56
1679515450260819334,0.466
1679515450268516628,0.47200000000000003
1679515450276213922,0.458
1679515450283911216,0.418
1679515450291608510,0.322
1679515450299305804,0.23900000000000002
1679515450307003098,0.21
1679515450314700392,0.166
1679515450322397686,0.083
1679515450330094980,-0.01
1679515450337792274,-0.089
1679515450345489568,-0.112
1679515450353186862,-0.11800000000000001,,1146
1679515450360884156,-0.158
1679515450368581450,-0.17200000000000001
1679515450376278744,-0.137
1679515450383976038,-0.116
1679515450391673332,-0.114
1679515450399370626,-0.093
1679515450407067920,-0.07
1679515450414765214,-0.066
1679515450422462508,-0.06
1679515450430159802,-0.031
1679515450437857096,0.006
1679515450445554390,0.018000000000000002
1679515450453251684,0.008
1679515450460948978,0.018000000000000002
1679515450468646272,0.05
1679515450476343566,0.058
1679515450484040860,0.031
1679515450491738154,0.008
1679515450499435448,0.004
1679515450507132742,-0.006
1679515450514830036,-0.035
1679515450522527330,-0.066
1679515450530224624,-0.085
1679515450537921918,-0.133
1679515450545619212,-0.202
1679515450553316506,-0.212
1679515450561013800,-0.195
1679515450568711094,-0.218
1679515450576408388,-0.233
1679515450584105682,-0.214
1679515450591802976,-0.216
1679515450599500270,-0.233
1679515450607197564,-0.222
1679515450614894858,-0.195
1679515450622592152,-0.177
1679515450630289446,-0.181
1679515450637986740,-0.187
1679515450645684034,-0.17500000000000002
1679515450653381328,-0.15
1679515450661078622,-0.135
1679515450668775916,-0.122
1679515450676473210,-0.10400000000000001
1679515450684170504,-0.10200000000000001
1679515450691867798,-0.108
1679515450699565092,-0.089
1679515450707262386,-0.054
1679515450714959680,-0.041
1679515450722656974,-0.043000000000000003
1679515450730354268,-0.037
1679515450738051562,-0.018000000000000002
1679515450745748856,-0.002
1679515450753446150,0.004
1679515450761143444,0.018000000000000002
1679515450768840738,0.041
1679515450776538032,0.037
1679515450784235326,-0.01
1679515450791932620,-0.08700000000000001
1679515450799629914,-0.137
1679515450807327208,-0.133
1679515450815024542,-0.135
1679515450822721000,-0.14100000000000001
1679515450830417458,-0.12
1679515450838113916,-0.1
1679515450845810374,-0.089
1679515450853506832,-0.066
1679515450861203290,-0.058
1679515450868899748,-0.11
1679515450876596206,-0.158
1679515450884292664,-0.131
1679515450891989122,-0.095
1679515450899685580,-0.10200000000000001
1679515450907382038,-0.106
1679515450915078496,-0.093
1679515450922774954,-0.083
1679515450930471412,-0.064
1679515450938167870,-0.027
1679515450945864328,0.018000000000000002
1679515450953560786,0.06
1679515450961257244,0.064
1679515450968953702,0.047
1679515450976650160,0.066
1679515450984346618,0.095
1679515450992043076,0.089
1679515450999739534,0.08700000000000001
1679515451007435992,0.097
1679515451015132450,0.097
1679515451022828908,0.089
1679515451030525366,0.07
1679515451038221824,0.05
1679515451045918282,0.045
1679515451053614740,0.022
1679515451061311198,0.02
1679515451069007656,0.187
1679515451076704114,0.587
1679515451084400572,1.068
1679515451092097030,1.189
1679515451099793488,0.639
1679515451107489946,-0.127
1679515451115186404,-0.462
1679515451122882862,-0.364
1679515451130579320,-0.11800000000000001
1679515451138275778,0.07
1679515451145972236,0.112
1679515451153668694,0.129
1679515451161365152,0.197
1679515451169061610,0.222
1679515451176758068,0.202
1679515451184454526,0.202
1679515451192150984,0.212
1679515451199847442,0.22
1679515451207543900,0.23500000000000001
1679515451215240358,0.252
1679515451222936816,0.272
1679515451230633274,0.28300000000000003
1679515451238329732,0.28500000000000003
1679515451246026190,0.308
1679515451253722648,0.333
1679515451261419106,0.339
1679515451269115564,0.34700000000000003
1679515451276812022,0.337
1679515451284508480,0.295
1679515451292204938,0.252
1679515451299901396,0.214
1679515451307597854,0.20600000000000002
1679515451315294312,0.23900000000000002
1679515451322990770,0.266
1679515451330687228,0.279
1679515451338383686,0.306
1679515451346080144,0.335
1679515451353776602,0.354
1679515451361473060,0.372
1679515451369169518,0.385
1679515451376866008,0.356,55
1679515451384563302,0.304
1679515451392260596,0.264
1679515451399957890,0.225
1679515451407655184,0.17200000000000001
1679515451415352478,0.12
1679515451423049772,0.081
1679515451430747066,0.052000000000000005
1679515451438444360,-0.002
1679515451446141654,-0.062
1679515451453838948,-0.058
1679515451461536242,-0.029
1679515451469233536,-0.047
1679515451476930830,-0.058
1679515451484628124,-0.014
1679515451492325418,0.018000000000000002
1679515451500022712,0.022,,1153
1679515451507720006,0.035
1679515451515417300,0.054
1679515451523114594,0.045
1679515451530811888,0.016
1679515451538509182,0.014
1679515451546206476,0.037
1679515451553903770,0.043000000000000003
1679515451561601064,0.018000000000000002
1679515451569298358,0.008
1679515451576995652,0.035
1679515451584692946,0.054
1679515451592390240,0.052000000000000005
1679515451600087534,0.06
1679515451607784828,0.075
1679515451615482122,0.075
1679515451623179416,0.07200000000000001
1679515451630876710,0.075
1679515451638574004,0.066
1679515451646271298,0.041
1679515451653968592,0.022
1679515451661665886,0.029
1679515451669363180,0.025
1679515451677060474,-0.014
1679515451684757768,-0.052000000000000005
1679515451692455062,-0.077
1679515451700152356,-0.116
1679515451707849650,-0.152
1679515451715546944,-0.166
1679515451723244238,-0.17200000000000001
1679515451730941532,-0.168
1679515451738638826,-0.164
1679515451746336120,-0.15
1679515451754033414,-0.127
1679515451761730708,-0.12
1679515451769428002,-0.14300000000000002
1679515451777125296,-0.16
1679515451784822590,-0.15
1679515451792519884,-0.166
1679515451800217178,-0.233
1679515451807914472,-0.268
1679515451815611766,-0.23500000000000001
1679515451823309060,-0.214
1679515451831006354,-0.229
1679515451838703648,-0.227
1679515451846400942,-0.197
1679515451854098236,-0.177
1679515451861795530,-0.17
1679515451869492824,-0.147
1679515451877190118,-0.12
1679515451884887412,-0.11800000000000001
1679515451892584706,-0.125
1679515451900282000,-0.1
1679515451907979294,-0.064
1679515451915676588,-0.05
1679515451923373882,-0.062
1679515451931071176,-0.064
1679515451938768510,-0.041
1679515451946464968,-0.025
1679515451954161426,-0.02
1679515451961857884,0.004
1679515451969554342,0.033
1679515451977250800,0.006
1679515451984947258,-0.039
1679515451992643716,-0.012
1679515452000340174,0.047
1679515452008036632,0.05
1679515452015733090,0.002
1679515452023429548,-0.029
1679515452031126006,-0.025
1679515452038822464,-0.025
1679515452046518922,-0.033
1679515452054215380,-0.016
1679515452061911838,0.004
1679515452069608296,-0.004
1679515452077304754,-0.006
1679515452085001212,0.027
1679515452092697670,0.05
1679515452100394128,0.022
1679515452108090586,0.02
1679515452115787044,0.193
1679515452123483502,0.604
1679515452131179960,1.054
1679515452138876418,1.085
1679515452146572876,0.491
1679515452154269334,-0.23700000000000002
1679515452161965792,-0.506
1679515452169662250,-0.293
1679515452177358708,-0.016
1679515452185055166,0.066
1679515452192751624,0.07200000000000001
1679515452200448082,0.11
1679515452208144540,0.133
1679515452215840998,0.133
1679515452223537456,0.15
1679515452231233914,0.17500000000000002
1679515452238930372,0.20600000000000002
1679515452246626830,0.222
1679515452254323288,0.20800000000000002
1679515452262019746,0.17500000000000002
1679515452269716204,0.162
1679515452277412662,0.17
1679515452285109120,0.179
1679515452292805578,0.197
1679515452300502036,0.212
1679515452308198494,0.168
1679515452315894952,0.10400000000000001
1679515452323591410,0.12
1679515452331287868,0.185
1679515452338984326,0.191
1679515452346680784,0.179
1679515452354377242,0.20800000000000002
1679515452362073700,0.25
1679515452369770158,0.28500000000000003
1679515452377466616,0.322
1679515452385163074,0.343
1679515452392859532,0.343
1679515452400555990,0.34700000000000003
1679515452408252448,0.356
1679515452415948906,0.36
1679515452423645364,0.36
1679515452431341822,0.329
1679515452439038280,0.268
1679515452446734738,0.22
1679515452454431196,0.191
1679515452462127654,0.164
1679515452469824112,0.154
1679515452477520570,0.14300000000000002
1679515452485217028,0.095
1679515452492913486,0.047
1679515452500609976,0.039,55
1679515452508306852,0.02
1679515452516003728,-0.02
1679515452523700604,-0.033
1679515452531397480,-0.025
1679515452539094356,-0.018000000000000002
1679515452546791232,-0.039
1679515452554488108,-0.081
1679515452562184984,-0.085
1679515452569881860,-0.062
1679515452577578736,-0.07
1679515452585275612,-0.083
1679515452592972488,-0.054
1679515452600669364,-0.02
1679515452608366240,-0.014
1679515452616063116,-0.014,,1117
1679515452623759992,-0.002
1679515452631456868,0.012
1679515452639153744,0.018000000000000002
1679515452646850620,0.029
1679515452654547496,0.054
1679515452662244372,0.07200000000000001
1679515452669941248,0.064
1679515452677638124,0.06
1679515452685335000,0.08700000000000001
1679515452693031876,0.112
1679515452700728752,0.112
1679515452708425628,0.116
1679515452716122504,0.129
1679515452723819380,0.133
1679515452731516256,0.131
1679515452739213132,0.137
1679515452746910008,0.14100000000000001
1679515452754606884,0.089
1679515452762303760,0.008
1679515452770000636,-0.008
1679515452777697512,0.02
1679515452785394388,0.006
1679515452793091264,-0.039
1679515452800788140,-0.07200000000000001
1679515452808485016,-0.154
1679515452816181892,-0.262
1679515452823878768,-0.28500000000000003
1679515452831575644,-0.256
1679515452839272520,-0.258
1679515452846969396,-0.272
1679515452854666272,-0.28300000000000003
1679515452862363148,-0.275
1679515452870060024,-0.252
1679515452877756900,-0.243
1679515452885453776,-0.243
1679515452893150652,-0.227
1679515452900847528,-0.216
1679515452908544404,-0.222
1679515452916241280,-0.212
1679515452923938156,-0.181
1679515452931635032,-0.16
1679515452939331908,-0.16
1679515452947028784,-0.164
1679515452954725660,-0.147
1679515452962422536,-0.12
1679515452970119412,-0.114
1679515452977816288,-0.10400000000000001
1679515452985513164,-0.081
1679515452993210040,-0.079
1679515453000906916,-0.10400000000000001
1679515453008603792,-0.114
1679515453016300668,-0.08700000000000001
1679515453023997544,-0.066
1679515453031694420,-0.07200000000000001
1679515453039391296,-0.075
1679515453047088172,-0.05
1679515453054785048,-0.029
1679515453062481960,-0.027,55
1679515453070178836,-0.016
1679515453077875712,0.0
1679515453085572588,-0.037
1679515453093269464,-0.097
1679515453100966340,-0.08700000000000001
1679515453108663216,-0.029
1679515453116360092,-0.004
1679515453124056968,-0.01
1679515453131753844,-0.025
1679515453139450720,-0.016
1679515453147147596,0.002
1679515453154844472,0.004
1679515453162541348,0.012
1679515453170238224,0.031
1679515453177935100,0.022
1679515453185631976,0.016
1679515453193328852,0.045
1679515453201025728,0.077
1679515453208722604,0.083
1679515453216419480,0.07
1679515453224116356,0.052000000000000005
1679515453231813232,0.114
1679515453239510108,0.391
1679515453247206984,0.841
1679515453254903860,1.139
1679515453262600736,0.895
1679515453270297612,0.168
1679515453277994488,-0.41200000000000003
1679515453285691364,-0.41000000000000003
1679515453293388240,-0.106
1679515453301085116,0.039
1679515453308781992,-0.006
1679515453316478868,-0.06
1679515453324175744,-0.064
1679515453331872620,-0.05
1679515453339569496,-0.031
1679515453347266372,-0.002
1679515453354963248,0.014
1679515453362660124,0.012
1679515453370357000,0.022
1679515453378053876,0.06
1679515453385750752,0.083
1679515453393447628,0.08700000000000001
1679515453401144504,0.10200000000000001
1679515453408841380,0.11800000000000001
1679515453416538256,0.125
1679515453424235132,0.129
1679515453431932008,0.156
1679515453439628884,0.193
1679515453447325760,0.21
1679515453455022636,0.20600000000000002
1679515453462719512,0.225
1679515453470416388,0.264
1679515453478113264,0.289
1679515453485810140,0.297
1679515453493507016,0.291
1679515453501203892,0.275
1679515453508900768,0.279
1679515453516597644,0.306
1679515453524294520,0.333
1679515453531991396,0.34500000000000003
1679515453539688272,0.333
1679515453547385148,0.28700000000000003
1679515453555082024,0.241
1679515453562778900,0.2
1679515453570475776,0.139
1679515453578172652,0.08700000000000001
1679515453585869528,0.066
1679515453593566404,0.041
1679515453601263280,0.01
1679515453608960156,0.008
1679515453616657032,0.031
1679515453624353946,0.045
1679515453632050961,0.041
1679515453639747976,0.037
1679515453647444991,0.054
1679515453655142006,0.075
1679515453662839021,0.083
1679515453670536036,0.097
1679515453678233051,0.11800000000000001
1679515453685930066,0.089
1679515453693627081,0.022
1679515453701324096,0.01
1679515453709021111,0.043000000000000003
1679515453716718126,0.05
1679515453724415141,0.037
1679515453732112156,0.027
1679515453739809171,0.0,,1117
1679515453747506186,-0.039
1679515453755203201,-0.041
1679515453762900216,-0.014
1679515453770597231,-0.006
1679515453778294246,-0.022
1679515453785991261,-0.027
1679515453793688276,0.002
1679515453801385291,0.027
1679515453809082306,0.02
1679515453816779321,-0.033
1679515453824476336,-0.108
1679515453832173351,-0.129
1679515453839870366,-0.112
1679515453847567381,-0.108
1679515453855264396,-0.089
1679515453862961411,-0.07200000000000001
1679515453870658426,-0.11
1679515453878355441,-0.15
1679515453886052456,-0.129
1679515453893749471,-0.108
1679515453901446486,-0.133
1679515453909143501,-0.166
1679515453916840516,-0.189
1679515453924537531,-0.222
1679515453932234546,-0.26
1679515453939931561,-0.262
1679515453947628576,-0.241
1679515453955325591,-0.243
1679515453963022606,-0.268
1679515453970719621,-0.266
1679515453978416636,-0.252
1679515453986113651,-0.28300000000000003
1679515453993810666,-0.322
1679515454001507681,-0.312
1679515454009204696,-0.297
1679515454016901711,-0.308
1679515454024598726,-0.3
1679515454032295741,-0.266
1679515454039992756,-0.23900000000000002
1679515454047689771,-0.23700000000000002
1679515454055386786,-0.245
1679515454063083801,-0.227
1679515454070780816,-0.191
1679515454078477831,-0.177
1679515454086174846,-0.168
1679515454093871861,-0.145
1679515454101568876,-0.135
1679515454109265891,-0.139
1679515454116962906,-0.122
1679515454124659921,-0.08700000000000001
1679515454132356936,-0.062
1679515454140053951,-0.062
1679515454147750966,-0.066
1679515454155447981,-0.047
1679515454163144996,-0.025
1679515454170842011,-0.014
1679515454178539026,0.0
1679515454186236102,0.025,55
1679515454193932839,0.025
1679515454201629576,0.016
1679515454209326313,0.033
1679515454217023050,0.066
1679515454224719787,0.079
1679515454232416524,0.056
1679515454240113261,0.02
1679515454247809998,0.018000000000000002
1679515454255506735,0.008
1679515454263203472,-0.05
1679515454270900209,-0.077
1679515454278596946,-0.047
1679515454286293683,-0.041
1679515454293990420,-0.047
1679515454301687157,-0.004
1679515454309383894,0.05
1679515454317080631,0.039
1679515454324777368,-0.039
1679515454332474105,-0.08700000000000001
1679515454340170842,-0.07200000000000001
1679515454347867579,-0.066
1679515454355564316,-0.07200000000000001
1679515454363261053,-0.052000000000000005
1679515454370957790,-0.031
1679515454378654527,-0.035
1679515454386351264,-0.033
1679515454394048001,-0.002
1679515454401744738,0.025
1679515454409441475,0.018000000000000002
1679515454417138212,-0.004
1679515454424834949,0.035
1679515454432531686,0.264
1679515454440228423,0.708
1679515454447925160,1.097
1679515454455621897,0.995
1679515454463318634,0.34700000000000003
1679515454471015371,-0.295
1679515454478712108,-0.454
1679515454486408845,-0.227
1679515454494105582,-0.01
1679515454501802319,0.031
1679515454509499056,0.035
1679515454517195793,0.062
1679515454524892530,0.07200000000000001
1679515454532589267,0.081
1679515454540286004,0.112
1679515454547982741,0.145
1679515454555679478,0.154
1679515454563376215,0.137
1679515454571072952,0.139
1679515454578769689,0.17
1679515454586466426,0.185
1679515454594163163,0.185
1679515454601859900,0.2
1679515454609556637,0.212
1679515454617253374,0.21
1679515454624950111,0.212
1679515454632646848,0.23900000000000002
1679515454640343585,0.27
1679515454648040322,0.28300000000000003
1679515454655737059,0.281
1679515454663433796,0.3
1679515454671130533,0.341
1679515454678827270,0.368
1679515454686524007,0.391
1679515454694220744,0.431
1679515454701917481,0.46
1679515454709614218,0.462
1679515454717310955,0.46
1679515454725007692,0.445
1679515454732704429,0.40800000000000003
1679515454740401166,0.362
1679515454748097914,0.306
1679515454755795069,0.247
1679515454763492224,0.202
1679515454771189379,0.152
1679515454778886534,0.114
1679515454786583689,0.095
1679515454794280844,0.052000000000000005
1679515454801977999,-0.029
1679515454809675154,-0.064,,1075
1679515454817372309,-0.037
1679515454825069464,-0.041
1679515454832766619,-0.11
1679515454840463774,-0.158
1679515454848160929,-0.139
1679515454855858084,-0.122
1679515454863555239,-0.127
1679515454871252394,-0.1
1679515454878949549,-0.066
1679515454886646704,-0.07200000000000001
1679515454894343859,-0.079
1679515454902041014,-0.043000000000000003
1679515454909738169,-0.006
1679515454917435324,0.004
1679515454925132479,0.004
1679515454932829634,0.01
1679515454940526789,0.008
1679515454948223944,-0.014
1679515454955921099,-0.027
1679515454963618254,-0.006
1679515454971315409,-0.022
1679515454979012564,-0.11
1679515454986709719,-0.177
1679515454994406874,-0.183
1679515455002104029,-0.20800000000000002
1679515455009801184,-0.252
1679515455017498339,-0.254
1679515455025195494,-0.243
1679515455032892649,-0.25
1679515455040589804,-0.25
1679515455048286959,-0.23500000000000001
1679515455055984114,-0.216
1679515455063681269,-0.212
1679515455071378424,-0.227
1679515455079075579,-0.22
1679515455086772734,-0.189
1679515455094469889,-0.168
1679515455102167044,-0.166
1679515455109864199,-0.16
1679515455117561354,-0.152
1679515455125258509,-0.152
1679515455132955664,-0.145
1679515455140652819,-0.125
1679515455148349974,-0.095
1679515455156047129,-0.08700000000000001
1679515455163744284,-0.10400000000000001
1679515455171441439,-0.097
1679515455179138594,-0.066
1679515455186835749,-0.05
1679515455194532904,-0.045
1679515455202230059,-0.031
1679515455209927214,-0.029
1679515455217624369,-0.058
1679515455225321524,-0.07200000000000001
1679515455233018679,-0.047
1679515455240715834,-0.02
1679515455248412989,-0.02
1679515455256110144,-0.031
1679515455263807299,-0.014
1679515455271504454,0.012
1679515455279201609,0.02
1679515455286898764,0.027
1679515455294595919,0.047
1679515455302293074,0.056
1679515455309990242,0.052000000000000005,55
1679515455317687188,0.062
1679515455325384134,0.081
1679515455333081080,0.054
1679515455340778026,-0.031
1679515455348474972,-0.075
1679515455356171918,-0.054
1679515455363868864,-0.056
1679515455371565810,-0.108
1679515455379262756,-0.131
1679515455386959702,-0.10200000000000001
1679515455394656648,-0.1
1679515455402353594,-0.12
1679515455410050540,-0.10400000000000001
1679515455417747486,-0.07200000000000001
1679515455425444432,-0.062
1679515455433141378,-0.056
1679515455440838324,-0.035
1679515455448535270,-0.002
1679515455456232216,0.039
1679515455463929162,0.047
1679515455471626108,0.016
1679515455479323054,0.008
1679515455487020000,0.012
1679515455494716946,-0.002
1679515455502413892,0.006
1679515455510110838,0.033
1679515455517807784,0.039
1679515455525504730,0.039
1679515455533201676,0.056
1679515455540898622,0.075
1679515455548595568,0.083
1679515455556292514,0.093
1679515455563989460,0.1
1679515455571686406,0.093
1679515455579383352,0.162
1679515455587080298,0.464
1679515455594777244,0.964
1679515455602474190,1.225
1679515455610171136,0.8180000000000001
1679515455617868082,0.037
1679515455625565028,-0.418
1679515455633261974,-0.379
1679515455640958920,-0.139
1679515455648655866,0.041
1679515455656352812,0.116
1679515455664049758,0.135
1679515455671746704,0.133
1679515455679443650,0.14300000000000002
1679515455687140596,0.177
1679515455694837542,0.202
1679515455702534488,0.195
1679515455710231434,0.168
1679515455717928380,0.137
1679515455725625326,0.131
1679515455733322272,0.139
1679515455741019218,0.154
1679515455748716164,0.181
1679515455756413110,0.191
1679515455764110056,0.181
1679515455771807002,0.189
1679515455779503948,0.22
1679515455787200894,0.241
1679515455794897840,0.252
1679515455802594786,0.275
1679515455810291732,0.295
1679515455817988678,0.304
1679515455825685624,0.322
1679515455833382570,0.358
1679515455841079516,0.358
1679515455848776462,0.302
1679515455856473408,0.27,,1046
1679515455864170354,0.295
1679515455871867312,0.318
1679515455879564258,0.31
1679515455887261204,0.295
1679515455894958150,0.279
1679515455902655096,0.21
1679515455910352042,0.085
1679515455918048988,-0.016
1679515455925745934,-0.041
1679515455933442880,-0.054
1679515455941139826,-0.095
1679515455948836772,-0.137
1679515455956533718,-0.17
1679515455964230664,-0.195
1679515455971927610,-0.197
1679515455979624556,-0.179
1679515455987321502,-0.168
1679515455995018448,-0.193
1679515456002715394,-0.216
1679515456010412340,-0.195
1679515456018109286,-0.166
1679515456025806232,-0.179
1679515456033503178,-0.214
1679515456041200124,-0.233
1679515456048897070,-0.252
1679515456056594016,-0.277
1679515456064290962,-0.275
1679515456071987908,-0.252
1679515456079684854,-0.243
1679515456087381800,-0.258
1679515456095078746,-0.264
1679515456102775692,-0.23500000000000001
1679515456110472638,-0.21
1679515456118169584,-0.21
1679515456125866530,-0.218
1679515456133563476,-0.214
1679515456141260422,-0.202
1679515456148957368,-0.193
1679515456156654314,-0.183
1679515456164351260,-0.158
1679515456172048206,-0.137
1679515456179745152,-0.145
1679515456187442098,-0.147
1679515456195139044,-0.127
1679515456202835990,-0.135
1679515456210532936,-0.164
1679515456218229882,-0.158
1679515456225926828,-0.14100000000000001
1679515456233623774,-0.137
1679515456241320720,-0.127
1679515456249017666,-0.10200000000000001
1679515456256714612,-0.075
1679515456264411558,-0.062
1679515456272108504,-0.068
1679515456279805450,-0.058
1679515456287502396,-0.022
1679515456295199342,-0.002
1679515456302896288,0.0
1679515456310593234,0.012
1679515456318290180,0.027
1679515456325987126,0.027
1679515456333684072,0.033
1679515456341381018,0.031
1679515456349077964,-0.022
1679515456356774910,-0.083
1679515456364471856,-0.093
1679515456372168802,-0.075
1679515456379865748,-0.054
1679515456387562694,-0.037
1679515456395259640,-0.022
1679515456402956586,-0.002
1679515456410653532,0.006
1679515456418350478,0.004
1679515456426047424,0.014
1679515456433744384,0.043000000000000003,55
1679515456441441260,0.066
1679515456449138136,0.045
1679515456456835012,0.01
1679515456464531888,0.014
1679515456472228764,0.029
1679515456479925640,-0.012
1679515456487622516,-0.056
1679515456495319392,-0.039
1679515456503016268,-0.025
1679515456510713144,-0.041
1679515456518410020,-0.029
1679515456526106896,0.008
1679515456533803772,0.027
1679515456541500648,0.025
1679515456549197524,0.025
1679515456556894400,0.041
1679515456564591276,0.056
1679515456572288152,0.054
1679515456579985028,0.06
1679515456587681904,0.081
1679515456595378780,0.075
1679515456603075656,0.062
1679515456610772532,0.093
1679515456618469408,0.14100000000000001
1679515456626166284,0.17500000000000002
1679515456633863160,0.195
1679515456641560036,0.191
1679515456649256912,0.177
1679515456656953788,0.187
1679515456664650664,0.195
1679515456672347540,0.2
1679515456680044416,0.21
1679515456687741292,0.197
1679515456695438168,0.164
1679515456703135044,0.15
1679515456710831920,0.168
1679515456718528796,0.179
1679515456726225672,0.166
1679515456733922548,0.154
1679515456741619424,0.14100000000000001
1679515456749316300,0.20600000000000002
1679515456757013176,0.485
1679515456764710052,0.966
1679515456772406928,1.281
1679515456780103804,0.983
1679515456787800680,0.233
1679515456795497556,-0.28500000000000003
1679515456803194432,-0.252
1679515456810891308,0.018000000000000002
1679515456818588184,0.16
1679515456826285060,0.179
1679515456833981936,0.197
1679515456841678812,0.20400000000000001
1679515456849375688,0.158
1679515456857072564,0.10200000000000001
1679515456864769440,0.091
1679515456872466316,0.091
1679515456880163192,0.085
1679515456887860068,0.11
1679515456895556944,0.139
1679515456903253820,0.14300000000000002
1679515456910950696,0.152
1679515456918647572,0.168
1679515456926344448,0.17
1679515456934041324,0.164
1679515456941738200,0.15
1679515456949435076,0.135
1679515456957131952,0.135
1679515456964828828,0.131
1679515456972525704,0.139
1679515456980222580,0.177,,1120
1679515456987919456,0.20800000000000002
1679515456995616370,0.227,55
1679515457003313664,0.264
1679515457011010958,0.304
1679515457018708252,0.32
1679515457026405546,0.34500000000000003
1679515457034102840,0.389
1679515457041800134,0.422
1679515457049497428,0.41600000000000004
1679515457057194722,0.385
1679515457064892016,0.354
1679515457072589310,0.314
1679515457080286604,0.22
1679515457087983898,0.114
1679515457095681192,0.07
1679515457103378486,0.027
1679515457111075780,-0.058
1679515457118773074,-0.108
1679515457126470368,-0.097
1679515457134167662,-0.08700000000000001
1679515457141864956,-0.114
1679515457149562250,-0.154
1679515457157259544,-0.17
1679515457164956838,-0.183
1679515457172654132,-0.214
1679515457180351426,-0.23700000000000002
1679515457188048720,-0.266
1679515457195746014,-0.318
1679515457203443308,-0.333
1679515457211140602,-0.302
1679515457218837896,-0.279
1679515457226535190,-0.27
1679515457234232484,-0.268
1679515457241929778,-0.262
1679515457249627072,-0.241
1679515457257324366,-0.225
1679515457265021660,-0.214
1679515457272718954,-0.189
1679515457280416248,-0.162
1679515457288113542,-0.17500000000000002
1679515457295810836,-0.183
1679515457303508130,-0.152
1679515457311205424,-0.11800000000000001
1679515457318902718,-0.114
1679515457326600012,-0.114
1679515457334297306,-0.10400000000000001
1679515457341994600,-0.1
1679515457349691894,-0.135
1679515457357389188,-0.183
1679515457365086482,-0.17200000000000001
1679515457372783776,-0.14300000000000002
1679515457380481070,-0.158
1679515457388178364,-0.158
1679515457395875658,-0.114
1679515457403572952,-0.08700000000000001
1679515457411270246,-0.085
1679515457418967540,-0.07
1679515457426664834,-0.066
1679515457434362128,-0.10200000000000001
1679515457442059422,-0.135
1679515457449756716,-0.116
1679515457457454010,-0.079
1679515457465151304,-0.07
1679515457472848598,-0.079
1679515457480545892,-0.07
1679515457488243186,-0.035
1679515457495940480,-0.016
1679515457503637774,-0.012
1679515457511335068,0.006
1679515457519032362,0.02
1679515457526729656,0.02
1679515457534426950,0.029
1679515457542124244,0.056
1679515457549821538,0.083
1679515457557518872,0.085
1679515457565215330,0.07
1679515457572911788,0.07200000000000001
1679515457580608246,0.1
1679515457588304704,0.112
1679515457596001162,0.11
1679515457603697620,0.125
1679515457611394078,0.12
1679515457619090536,0.06
1679515457626786994,0.0
1679515457634483452,0.012
1679515457642179910,0.041
1679515457649876368,0.029
1679515457657572826,0.012
1679515457665269284,0.031
1679515457672965742,0.05
1679515457680662200,0.033
1679515457688358658,0.018000000000000002
1679515457696055116,0.035
1679515457703751574,0.041
1679515457711448032,0.031
1679515457719144490,0.045
1679515457726840948,0.079
1679515457734537406,0.097
1679515457742233864,0.093
1679515457749930322,0.095
1679515457757626780,0.112
1679515457765323238,0.127
1679515457773019696,0.127
1679515457780716154,0.131
1679515457788412612,0.152
1679515457796109070,0.16
1679515457803805528,0.164
1679515457811501986,0.197
1679515457819198444,0.247
1679515457826894902,0.258
1679515457834591360,0.229
1679515457842287818,0.22
1679515457849984276,0.227
1679515457857680734,0.185
1679515457865377192,0.114
1679515457873073650,0.097
1679515457880770108,0.11800000000000001
1679515457888466566,0.106
1679515457896163024,0.089
1679515457903859482,0.114
1679515457911555940,0.145
1679515457919252398,0.14100000000000001
1679515457926948856,0.095
1679515457934645314,0.08700000000000001
1679515457942341772,0.291
1679515457950038230,0.722
1679515457957734688,1.1
1679515457965431146,1.002
1679515457973127604,0.368
1679515457980824062,-0.279
1679515457988520520,-0.42
1679515457996216978,-0.152
1679515458003913436,0.07200000000000001
1679515458011609894,0.106
1679515458019306352,0.112
1679515458027002810,0.14300000000000002
1679515458034699268,0.15
1679515458042395726,0.152
1679515458050092184,0.177
1679515458057788642,0.20800000000000002
1679515458065485100,0.218
1679515458073181558,0.20800000000000002
1679515458080878016,0.21
1679515458088574474,0.23700000000000002
1679515458096270932,0.254
1679515458103967390,0.252
1679515458111663848,0.26
1679515458119360338,0.272,55
1679515458127057632,0.27
1679515458134754926,0.275
1679515458142452220,0.297
1679515458150149514,0.327
1679515458157846808,0.333
1679515458165544102,0.312
1679515458173241396,0.28500000000000003,,1195
1679515458180938690,0.272
1679515458188635984,0.256
1679515458196333278,0.227
1679515458204030572,0.23700000000000002
1679515458211727866,0.268
1679515458219425160,0.27
1679515458227122454,0.275
1679515458234819748,0.302
1679515458242517042,0.316
1679515458250214336,0.28700000000000003
1679515458257911630,0.233
1679515458265608924,0.185
1679515458273306218,0.147
1679515458281003512,0.10400000000000001
1679515458288700806,0.07
1679515458296398100,0.056
1679515458304095394,0.018000000000000002
1679515458311792688,-0.039
1679515458319489982,-0.056
1679515458327187276,-0.033
1679515458334884570,-0.035
1679515458342581864,-0.079
1679515458350279158,-0.122
1679515458357976452,-0.152
1679515458365673746,-0.23700000000000002
1679515458373371040,-0.331
1679515458381068334,-0.329
1679515458388765628,-0.3
1679515458396462922,-0.327
1679515458404160216,-0.341
1679515458411857510,-0.327
1679515458419554804,-0.34500000000000003
1679515458427252098,-0.379
1679515458434949392,-0.377
1679515458442646686,-0.362
1679515458450343980,-0.352
1679515458458041274,-0.337
1679515458465738568,-0.322
1679515458473435862,-0.295
1679515458481133156,-0.275
1679515458488830450,-0.281
1679515458496527744,-0.28300000000000003
1679515458504225038,-0.25
1679515458511922332,-0.218
1679515458519619626,-0.21
1679515458527316920,-0.20400000000000001
1679515458535014214,-0.187
1679515458542711508,-0.17200000000000001
1679515458550408802,-0.16
1679515458558106096,-0.14300000000000002
1679515458565803390,-0.116
1679515458573500684,-0.10400000000000001
1679515458581197978,-0.11800000000000001
1679515458588895272,-0.116
1679515458596592566,-0.079
1679515458604289860,-0.056
1679515458611987154,-0.058
1679515458619684448,-0.047
1679515458627381742,-0.031
1679515458635079036,-0.027
1679515458642776330,-0.022
1679515458650473624,0.0
1679515458658170918,0.016
1679515458665868212,-0.016
1679515458673565506,-0.068
1679515458681262840,-0.064
1679515458688959298,-0.029
1679515458696655756,-0.02
1679515458704352214,-0.018000000000000002
1679515458712048672,-0.002
1679515458719745130,0.0
1679515458727441588,-0.033
1679515458735138046,-0.077
1679515458742834504,-0.077
1679515458750530962,-0.045
1679515458758227420,-0.045
1679515458765923878,-0.062
1679515458773620336,-0.047
1679515458781316794,-0.018000000000000002
1679515458789013252,-0.008
1679515458796709710,0.004
1679515458804406168,0.029
1679515458812102626,0.037
1679515458819799084,0.029
1679515458827495542,0.039
1679515458835192000,0.068
1679515458842888458,0.08700000000000001
1679515458850584916,0.089
1679515458858281374,0.079
1679515458865977832,0.037
1679515458873674290,-0.025
1679515458881370748,-0.05
1679515458889067206,-0.029
1679515458896763664,-0.012
1679515458904460122,-0.02
1679515458912156580,-0.041
1679515458919853038,-0.047
1679515458927549496,-0.025
1679515458935245954,-0.002
1679515458942942412,-0.008
1679515458950638870,-0.014
1679515458958335328,0.0
1679515458966031786,0.012
1679515458973728244,0.027
1679515458981424702,0.064
1679515458989121160,0.106
1679515458996817618,0.122
1679515459004514076,0.125
1679515459012210534,0.127
1679515459019906992,0.14100000000000001
1679515459027603450,0.158
1679515459035299908,0.158
1679515459042996366,0.145
1679515459050692824,0.147
1679515459058389282,0.152
1679515459066085740,0.158
1679515459073782198,0.183
1679515459081478656,0.202
1679515459089175114,0.187
1679515459096871572,0.17200000000000001
1679515459104568030,0.17500000000000002
1679515459112264488,0.20600000000000002
1679515459119960946,0.377
1679515459127657404,0.772
1679515459135353862,1.197
1679515459143050320,1.187
1679515459150746778,0.595
1679515459158443236,-0.095
1679515459166139694,-0.356
1679515459173836152,-0.185
1679515459181532610,0.047
1679515459189229068,0.129
1679515459196925526,0.15
1679515459204621984,0.177
1679515459212318442,0.187
1679515459220014900,0.202
1679515459227711358,0.222
1679515459235407816,0.227
1679515459243104306,0.227,54
1679515459250801600,0.243
1679515459258498894,0.272
1679515459266196188,0.279
1679515459273893482,0.258
1679515459281590776,0.252
1679515459289288070,0.275
1679515459296985364,0.26
1679515459304682658,0.2
1679515459312379952,0.181
1679515459320077246,0.202,,1151
1679515459327774540,0.202
1679515459335471834,0.2
1679515459343169128,0.231
1679515459350866422,0.27
1679515459358563716,0.28300000000000003
1679515459366261010,0.28300000000000003
1679515459373958304,0.268
1679515459381655598,0.233
1679515459389352892,0.22
1679515459397050186,0.23500000000000001
1679515459404747480,0.22
1679515459412444774,0.17500000000000002
1679515459420142068,0.154
1679515459427839362,0.15
1679515459435536656,0.133
1679515459443233950,0.097
1679515459450931244,0.033
1679515459458628538,-0.056
1679515459466325832,-0.125
1679515459474023126,-0.15
1679515459481720420,-0.168
1679515459489417714,-0.197
1679515459497115008,-0.227
1679515459504812302,-0.266
1679515459512509596,-0.308
1679515459520206890,-0.325
1679515459527904184,-0.312
1679515459535601478,-0.3
1679515459543298772,-0.306
1679515459550996066,-0.31
1679515459558693360,-0.3
1679515459566390654,-0.291
1679515459574087948,-0.291
1679515459581785242,-0.272
1679515459589482536,-0.25
1679515459597179830,-0.254
1679515459604877124,-0.256
1679515459612574418,-0.227
1679515459620271712,-0.197
1679515459627969006,-0.187
1679515459635666300,-0.185
1679515459643363594,-0.191
1679515459651060888,-0.222
1679515459658758182,-0.25
1679515459666455476,-0.23900000000000002
1679515459674152770,-0.20800000000000002
1679515459681850064,-0.193
1679515459689547358,-0.2
1679515459697244652,-0.193
1679515459704941946,-0.164
1679515459712639240,-0.139
1679515459720336534,-0.129
1679515459728033828,-0.112
1679515459735731122,-0.095
1679515459743428416,-0.085
1679515459751125710,-0.07
1679515459758823004,-0.047
1679515459766520298,-0.018000000000000002
1679515459774217592,-0.002
1679515459781914886,-0.008
1679515459789612180,0.0
1679515459797309474,0.035
1679515459805006806,0.058
1679515459812703264,0.062
1679515459820399722,0.07
1679515459828096180,0.077
1679515459835792638,0.045
1679515459843489096,-0.004
1679515459851185554,-0.01
1679515459858882012,0.025
1679515459866578470,0.039
1679515459874274928,-0.002
1679515459881971386,-0.066
1679515459889667844,-0.091
1679515459897364302,-0.08700000000000001
1679515459905060760,-0.097
1679515459912757218,-0.089
1679515459920453676,-0.068
1679515459928150134,-0.066
1679515459935846592,-0.058
1679515459943543050,-0.027
1679515459951239508,0.0
1679515459958935966,0.008
1679515459966632424,0.01
1679515459974328882,0.027
1679515459982025340,0.054
1679515459989721798,0.064
1679515459997418256,0.07200000000000001
1679515460005114714,0.093
1679515460012811172,0.10200000000000001
1679515460020507630,0.093
1679515460028204088,0.10200000000000001
1679515460035900546,0.135
1679515460043597004,0.158
1679515460051293462,0.158
1679515460058989920,0.156
1679515460066686378,0.168
1679515460074382836,0.185
1679515460082079294,0.191
1679515460089775752,0.197
1679515460097472210,0.212
1679515460105168668,0.2
1679515460112865126,0.177
1679515460120561584,0.195
1679515460128258042,0.241
1679515460135954500,0.27
1679515460143650958,0.268
1679515460151347416,0.23700000000000002
1679515460159043874,0.212
1679515460166740332,0.216
1679515460174436790,0.222
1679515460182133248,0.225
1679515460189829706,0.233
1679515460197526164,0.216
1679515460205222622,0.195
1679515460212919080,0.214
1679515460220615538,0.23900000000000002
1679515460228311996,0.243
1679515460236008454,0.23700000000000002
1679515460243704912,0.227
1679515460251401370,0.214
1679515460259097828,0.26
1679515460266794286,0.51
1679515460274490744,0.987
1679515460282187202,1.366
1679515460289883660,1.145
1679515460297580118,0.397
1679515460305276576,-0.187
1679515460312973034,-0.26
1679515460320669492,-0.047
1679515460328365950,0.147
1679515460336062408,0.222
1679515460343758866,0.229
1679515460351455324,0.23500000000000001
1679515460359151782,0.254
1679515460366848276,0.279,54
1679515460374545570,0.279
1679515460382242864,0.20400000000000001
1679515460389940158,0.108
1679515460397637452,0.089
1679515460405334746,0.108
1679515460413032040,0.10400000000000001
1679515460420729334,0.10400000000000001
1679515460428426628,0.106
1679515460436123922,0.075
1679515460443821216,0.016
1679515460451518510,0.006
1679515460459215804,0.045
1679515460466913098,0.066
1679515460474610392,0.064
1679515460482307686,0.081
1679515460490004980,0.11800000000000001
1679515460497702274,0.145,,1171
1679515460505399568,0.166
1679515460513096862,0.20600000000000002
1679515460520794156,0.243
1679515460528491450,0.268
1679515460536188744,0.295
1679515460543886038,0.335
1679515460551583332,0.366
1679515460559280626,0.362
1679515460566977920,0.329
1679515460574675214,0.297
1679515460582372508,0.27
1679515460590069802,0.212
1679515460597767096,0.14300000000000002
1679515460605464390,0.108
1679515460613161684,0.07200000000000001
1679515460620858978,0.018000000000000002
1679515460628556272,-0.041
1679515460636253566,-0.114
1679515460643950860,-0.17
1679515460651648154,-0.189
1679515460659345448,-0.20800000000000002
1679515460667042742,-0.243
1679515460674740036,-0.26
1679515460682437330,-0.279
1679515460690134624,-0.308
1679515460697831918,-0.31
1679515460705529212,-0.31
1679515460713226506,-0.325
1679515460720923800,-0.308
1679515460728621094,-0.272
1679515460736318388,-0.264
1679515460744015682,-0.268
1679515460751712976,-0.26
1679515460759410270,-0.23900000000000002
1679515460767107564,-0.229
1679515460774804858,-0.22
1679515460782502152,-0.197
1679515460790199446,-0.179
1679515460797896740,-0.195
1679515460805594034,-0.20800000000000002
1679515460813291328,-0.179
1679515460820988622,-0.152
1679515460828685916,-0.15
1679515460836383210,-0.145
1679515460844080504,-0.131
1679515460851777798,-0.116
1679515460859475092,-0.108
1679515460867172386,-0.1
1679515460874869680,-0.097
1679515460882566974,-0.152
1679515460890264268,-0.225
1679515460897961562,-0.225
1679515460905658856,-0.183
1679515460913356150,-0.166
1679515460921053444,-0.16
1679515460928750778,-0.14100000000000001
1679515460936447654,-0.129
1679515460944144530,-0.122
1679515460951841406,-0.112
1679515460959538282,-0.091
1679515460967235158,-0.06
1679515460974932034,-0.047
1679515460982628910,-0.062
1679515460990325786,-0.058
1679515460998022662,-0.027
1679515461005719538,-0.037
1679515461013416414,-0.097
1679515461021113290,-0.11800000000000001
1679515461028810166,-0.10200000000000001
1679515461036507042,-0.10200000000000001
1679515461044203918,-0.10200000000000001
1679515461051900794,-0.075
1679515461059597670,-0.045
1679515461067294546,-0.039
1679515461074991422,-0.045
1679515461082688298,-0.031
1679515461090385174,-0.004
1679515461098082050,0.008
1679515461105778926,0.014
1679515461113475802,0.035
1679515461121172678,0.037
1679515461128869554,0.008
1679515461136566430,-0.002
1679515461144263306,0.025
1679515461151960182,0.052000000000000005
1679515461159657058,0.047
1679515461167353934,0.039
1679515461175050810,0.054
1679515461182747686,0.077
1679515461190444562,0.081
1679515461198141438,0.089
1679515461205838314,0.114
1679515461213535190,0.12
1679515461221232066,0.11
1679515461228928942,0.11800000000000001
1679515461236625818,0.147
1679515461244322694,0.164
1679515461252019570,0.16
1679515461259716446,0.152
1679515461267413322,0.156
1679515461275110198,0.164
1679515461282807074,0.16
1679515461290503950,0.179
1679515461298200826,0.216
1679515461305897702,0.227
1679515461313594578,0.231
1679515461321291454,0.258
1679515461328988330,0.268
1679515461336685206,0.256
1679515461344382082,0.247
1679515461352078958,0.243
1679515461359775834,0.243
1679515461367472710,0.23900000000000002
1679515461375169586,0.21
1679515461382866462,0.147
1679515461390563338,0.075
1679515461398260214,0.02
1679515461405957090,0.012
1679515461413653966,0.025
1679515461421350842,0.016
1679515461429047718,0.014
1679515461436744594,0.154
1679515461444441470,0.537
1679515461452138346,1.004
1679515461459835222,1.1
1679515461467532098,0.5660000000000001
1679515461475228974,-0.154
1679515461482925850,-0.46
1679515461490622761,-0.295,54
1679515461498319498,-0.039
1679515461506016235,0.058
1679515461513712972,0.07
1679515461521409709,0.091
1679515461529106446,0.106
1679515461536803183,0.108
1679515461544499920,0.095
1679515461552196657,0.054
1679515461559893394,0.022
1679515461567590131,0.041
1679515461575286868,0.054
1679515461582983605,0.035
1679515461590680342,0.033
1679515461598377079,0.064
1679515461606073816,0.083
1679515461613770553,0.07200000000000001
1679515461621467290,0.039
1679515461629164027,0.01
1679515461636860764,0.012
1679515461644557501,0.033
1679515461652254238,0.06
1679515461659950975,0.1
1679515461667647712,0.122
1679515461675344449,0.127
1679515461683041186,0.154,,1188
1679515461690737923,0.202
1679515461698434660,0.23500000000000001
1679515461706131397,0.26
1679515461713828134,0.297
1679515461721524871,0.32
1679515461729221608,0.318
1679515461736918345,0.316
1679515461744615082,0.32
1679515461752311819,0.304
1679515461760008556,0.25
1679515461767705293,0.17200000000000001
1679515461775402030,0.122
1679515461783098767,0.097
1679515461790795504,0.066
1679515461798492241,0.043000000000000003
1679515461806188978,0.043000000000000003
1679515461813885715,0.02
1679515461821582452,-0.027
1679515461829279189,-0.039
1679515461836975926,-0.016
1679515461844672663,-0.018000000000000002
1679515461852369400,-0.062
1679515461860066137,-0.12
1679515461867762874,-0.183
1679515461875459611,-0.23900000000000002
1679515461883156348,-0.281
1679515461890853085,-0.337
1679515461898549822,-0.383
1679515461906246559,-0.389
1679515461913943296,-0.391
1679515461921640033,-0.381
1679515461929336770,-0.35000000000000003
1679515461937033507,-0.337
1679515461944730244,-0.341
1679515461952426981,-0.335
1679515461960123718,-0.316
1679515461967820455,-0.304
1679515461975517192,-0.295
1679515461983213929,-0.27
1679515461990910666,-0.25
1679515461998607403,-0.26
1679515462006304140,-0.258
1679515462014000877,-0.225
1679515462021697614,-0.195
1679515462029394351,-0.189
1679515462037091088,-0.181
1679515462044787825,-0.168
1679515462052484572,-0.156,54
1679515462060181518,-0.14100000000000001
1679515462067878464,-0.127
1679515462075575410,-0.1
1679515462083272356,-0.097
1679515462090969302,-0.154
1679515462098666248,-0.195
1679515462106363194,-0.181
1679515462114060140,-0.195
1679515462121757086,-0.23900000000000002
1679515462129454032,-0.231
1679515462137150978,-0.20600000000000002
1679515462144847924,-0.20400000000000001
1679515462152544870,-0.191
1679515462160241816,-0.158
1679515462167938762,-0.131
1679515462175635708,-0.122
1679515462183332654,-0.129
1679515462191029600,-0.11800000000000001
1679515462198726546,-0.085
1679515462206423492,-0.062
1679515462214120438,-0.054
1679515462221817384,-0.035
1679515462229514330,-0.02
1679515462237211276,-0.016
1679515462244908222,-0.006
1679515462252605168,0.022
1679515462260302114,0.052000000000000005
1679515462267999060,0.06
1679515462275696006,0.05
1679515462283392952,0.06
1679515462291089898,0.08700000000000001
1679515462298786844,0.097
1679515462306483790,0.10200000000000001
1679515462314180736,0.122
1679515462321877682,0.129
1679515462329574628,0.116
1679515462337271574,0.125
1679515462344968520,0.152
1679515462352665466,0.164
1679515462360362412,0.135
1679515462368059358,0.10200000000000001
1679515462375756304,0.108
1679515462383453250,0.127
1679515462391150196,0.091
1679515462398847142,0.031
1679515462406544088,0.025
1679515462414241034,0.033
1679515462421937980,0.018000000000000002
1679515462429634926,0.029
1679515462437331872,0.064
1679515462445028818,0.077
1679515462452725764,0.064
1679515462460422710,0.054
1679515462468119656,0.075
1679515462475816602,0.106
1679515462483513548,0.125
1679515462491210494,0.156
1679515462498907440,0.193
1679515462506604386,0.181
1679515462514301332,0.145
1679515462521998278,0.162
1679515462529695224,0.193
1679515462537392170,0.181
1679515462545089116,0.164
1679515462552786062,0.164
1679515462560483008,0.168
1679515462568179954,0.166
1679515462575876900,0.162
1679515462583573846,0.177
1679515462591270792,0.193
1679515462598967738,0.166
1679515462606664684,0.112
1679515462614361642,0.183
1679515462622058588,0.514
1679515462629755534,0.985
1679515462637452480,1.183
1679515462645149426,0.777
1679515462652846372,0.014
1679515462660543318,-0.485
1679515462668240264,-0.437
1679515462675937210,-0.139
1679515462683634156,-0.006
1679515462691331102,-0.035
1679515462699028048,-0.022
1679515462706724994,0.029
1679515462714421940,0.045
1679515462722118886,0.047
1679515462729815832,0.066
1679515462737512778,0.08700000000000001
1679515462745209724,0.08700000000000001
1679515462752906670,0.089
1679515462760603616,0.11
1679515462768300562,0.14100000000000001
1679515462775997508,0.15
1679515462783694454,0.137
1679515462791391400,0.14300000000000002
1679515462799088346,0.17500000000000002
1679515462806785292,0.193
1679515462814482238,0.197
1679515462822179184,0.216
1679515462829876130,0.233
1679515462837573076,0.241
1679515462845270022,0.254
1679515462852966968,0.256
1679515462860663914,0.252,,1179
1679515462868360860,0.264
1679515462876057806,0.275
1679515462883754752,0.293
1679515462891451698,0.325
1679515462899148644,0.293
1679515462906845590,0.229
1679515462914542536,0.225
1679515462922239482,0.227
1679515462929936428,0.177
1679515462937633374,0.127
1679515462945330320,0.097
1679515462953027266,0.06
1679515462960724212,0.004
1679515462968421158,-0.043000000000000003
1679515462976118104,-0.056
1679515462983815050,-0.052000000000000005
1679515462991511996,-0.07200000000000001
1679515462999208942,-0.106
1679515463006905888,-0.116
1679515463014602834,-0.116
1679515463022299780,-0.131
1679515463029996726,-0.152
1679515463037693672,-0.164
1679515463045390618,-0.181
1679515463053087564,-0.222
1679515463060784510,-0.258
1679515463068481456,-0.25
1679515463076178402,-0.23700000000000002
1679515463083875348,-0.243
1679515463091572294,-0.25
1679515463099269240,-0.277
1679515463106966186,-0.325
1679515463114663132,-0.335
1679515463122360078,-0.3
1679515463130057024,-0.279
1679515463137753970,-0.277
1679515463145450916,-0.275
1679515463153147862,-0.266
1679515463160844808,-0.254
1679515463168541754,-0.241
1679515463176238714,-0.23500000000000001,53
1679515463183935590,-0.21
1679515463191632466,-0.202
1679515463199329342,-0.258
1679515463207026218,-0.308
1679515463214723094,-0.281
1679515463222419970,-0.245
1679515463230116846,-0.252
1679515463237813722,-0.247
1679515463245510598,-0.229
1679515463253207474,-0.216
1679515463260904350,-0.20800000000000002
1679515463268601226,-0.183
1679515463276298102,-0.15
1679515463283994978,-0.133
1679515463291691854,-0.137
1679515463299388730,-0.127
1679515463307085606,-0.091
1679515463314782482,-0.068
1679515463322479358,-0.062
1679515463330176234,-0.047
1679515463337873110,-0.045
1679515463345569986,-0.085
1679515463353266862,-0.11800000000000001
1679515463360963738,-0.1
1679515463368660614,-0.066
1679515463376357490,-0.064
1679515463384054366,-0.075
1679515463391751242,-0.062
1679515463399448118,-0.043000000000000003
1679515463407144994,-0.079
1679515463414841870,-0.131
1679515463422538746,-0.12
1679515463430235622,-0.1
1679515463437932498,-0.106
1679515463445629374,-0.097
1679515463453326250,-0.064
1679515463461023126,-0.037
1679515463468720002,-0.035
1679515463476416878,-0.041
1679515463484113754,-0.027
1679515463491810630,0.002
1679515463499507506,0.012
1679515463507204382,0.02
1679515463514901258,0.043000000000000003
1679515463522598134,0.052000000000000005
1679515463530295010,0.045
1679515463537991886,0.056
1679515463545688762,0.089
1679515463553385638,0.108
1679515463561082514,0.1
1679515463568779390,0.085
1679515463576476266,0.095
1679515463584173142,0.112
1679515463591870018,0.093
1679515463599566894,0.075
1679515463607263770,0.089
1679515463614960646,0.091
1679515463622657522,0.07
1679515463630354398,0.079
1679515463638051274,0.11
1679515463645748150,0.114
1679515463653445026,0.095
1679515463661141902,0.097
1679515463668838778,0.125
1679515463676535654,0.152
1679515463684232530,0.17500000000000002
1679515463691929406,0.20600000000000002
1679515463699626282,0.214
1679515463707323158,0.183
1679515463715020034,0.17
1679515463722716910,0.191
1679515463730413786,0.202
1679515463738110700,0.195
1679515463745807576,0.185
1679515463753504452,0.187
1679515463761201328,0.197
1679515463768898204,0.202
1679515463776595080,0.20400000000000001
1679515463784291956,0.216
1679515463791988832,0.20400000000000001
1679515463799685708,0.129
1679515463807382584,0.147
1679515463815079460,0.458
1679515463822776336,0.9450000000000001
1679515463830473212,1.172
1679515463838170088,0.775
1679515463845866964,0.002
1679515463853563840,-0.47700000000000004
1679515463861260716,-0.418
1679515463868957592,-0.14100000000000001
1679515463876654468,0.018000000000000002
1679515463884351344,0.037
1679515463892048220,0.033
1679515463899745096,0.05
1679515463907441972,0.043000000000000003
1679515463915138848,-0.016
1679515463922835724,-0.062
1679515463930532600,-0.041
1679515463938229476,-0.025
1679515463945926352,-0.029
1679515463953623228,-0.018000000000000002
1679515463961320104,0.01
1679515463969016980,0.037
1679515463976713856,0.047
1679515463984410732,0.041
1679515463992107608,0.054
1679515463999804484,0.08700000000000001
1679515464007501360,0.108,,1145
1679515464015198236,0.116
1679515464022895112,0.14100000000000001
1679515464030591988,0.164
1679515464038288864,0.17
1679515464045985740,0.191
1679515464053682616,0.23500000000000001
1679515464061379492,0.279
1679515464069076368,0.302
1679515464076773244,0.302
1679515464084470120,0.291
1679515464092166996,0.28500000000000003
1679515464099863872,0.291
1679515464107560748,0.297
1679515464115257624,0.291
1679515464122954500,0.26
1679515464130651376,0.195
1679515464138348252,0.122
1679515464146045128,0.054
1679515464153742004,-0.004
1679515464161438880,-0.052000000000000005
1679515464169135756,-0.10400000000000001
1679515464176832632,-0.152
1679515464184529508,-0.187
1679515464192226384,-0.225
1679515464199923260,-0.258
1679515464207620136,-0.27
1679515464215317012,-0.279
1679515464223013888,-0.293
1679515464230710764,-0.28300000000000003
1679515464238407640,-0.256
1679515464246104516,-0.243
1679515464253801392,-0.252
1679515464261498268,-0.247
1679515464269195144,-0.231
1679515464276892020,-0.218
1679515464284588896,-0.212
1679515464292285772,-0.189
1679515464299982684,-0.166,53
1679515464307679560,-0.17
1679515464315376436,-0.177
1679515464323073312,-0.17
1679515464330770188,-0.189
1679515464338467064,-0.22
1679515464346163940,-0.222
1679515464353860816,-0.214
1679515464361557692,-0.222
1679515464369254568,-0.26
1679515464376951444,-0.291
1679515464384648320,-0.272
1679515464392345196,-0.247
1679515464400042072,-0.264
1679515464407738948,-0.277
1679515464415435824,-0.297
1679515464423132700,-0.354
1679515464430829576,-0.366
1679515464438526452,-0.335
1679515464446223328,-0.322
1679515464453920204,-0.314
1679515464461617080,-0.291
1679515464469313956,-0.262
1679515464477010832,-0.229
1679515464484707708,-0.20600000000000002
1679515464492404584,-0.20800000000000002
1679515464500101460,-0.191
1679515464507798336,-0.15
1679515464515495212,-0.127
1679515464523192088,-0.11800000000000001
1679515464530888964,-0.1
1679515464538585840,-0.079
1679515464546282716,-0.07200000000000001
1679515464553979592,-0.064
1679515464561676468,-0.041
1679515464569373344,-0.035
1679515464577070220,-0.079
1679515464584767096,-0.127
1679515464592463972,-0.114
1679515464600160848,-0.077
1679515464607857724,-0.07
1679515464615554600,-0.066
1679515464623251476,-0.043000000000000003
1679515464630948352,-0.029
1679515464638645228,-0.027
1679515464646342104,-0.014
1679515464654038980,0.014
1679515464661735856,0.039
1679515464669432732,0.045
1679515464677129608,0.037
1679515464684826484,0.054
1679515464692523360,0.081
1679515464700220236,0.091
1679515464707917112,0.1
1679515464715613988,0.127
1679515464723310864,0.133
1679515464731007740,0.122
1679515464738704616,0.133
1679515464746401492,0.162
1679515464754098368,0.179
1679515464761795244,0.177
1679515464769492120,0.17200000000000001
1679515464777188996,0.183
1679515464784885872,0.202
1679515464792582748,0.20600000000000002
1679515464800279624,0.212
1679515464807976500,0.231
1679515464815673376,0.225
1679515464823370252,0.187
1679515464831067128,0.164
1679515464838764004,0.177
1679515464846460880,0.189
1679515464854157756,0.187
1679515464861854668,0.195
1679515464869551544,0.225
1679515464877248420,0.256
1679515464884945296,0.258
1679515464892642172,0.245
1679515464900339048,0.245
1679515464908035924,0.20400000000000001
1679515464915732800,0.10400000000000001
1679515464923429676,0.02
1679515464931126552,-0.027
1679515464938823428,-0.043000000000000003
1679515464946520304,-0.043000000000000003
1679515464954217180,-0.039
1679515464961914056,-0.033
1679515464969610932,-0.025
1679515464977307808,-0.022
1679515464985004684,-0.018000000000000002
1679515464992701560,0.035
1679515465000398436,0.25
1679515465008095312,0.685
1679515465015792188,1.087
1679515465023489064,0.962
1679515465031185940,0.277
1679515465038882816,-0.339
1679515465046579692,-0.468
1679515465054276568,-0.258
1679515465061973444,-0.031
1679515465069670320,0.039
1679515465077367196,0.027
1679515465085064072,0.041
1679515465092760948,0.05
1679515465100457824,0.05
1679515465108154700,0.081
1679515465115851576,0.11
1679515465123548452,0.114
1679515465131245328,0.127
1679515465138942204,0.14300000000000002
1679515465146639080,0.145
1679515465154335956,0.152
1679515465162032832,0.177
1679515465169729708,0.20600000000000002
1679515465177426584,0.214,,1174
1679515465185123460,0.20400000000000001
1679515465192820336,0.212
1679515465200517212,0.243
1679515465208214088,0.26
1679515465215910964,0.272
1679515465223607840,0.297
1679515465231304716,0.318
1679515465239001592,0.327
1679515465246698468,0.35000000000000003
1679515465254395344,0.395
1679515465262092220,0.437
1679515465269789096,0.456
1679515465277485972,0.462
1679515465285182848,0.47700000000000004
1679515465292879724,0.5
1679515465300576600,0.493
1679515465308273476,0.452
1679515465315970352,0.356
1679515465323667228,0.227
1679515465331364104,0.129
1679515465339060980,0.075
1679515465346757856,0.018000000000000002
1679515465354454732,-0.054
1679515465362151608,-0.12
1679515465369848484,-0.179
1679515465377545360,-0.218
1679515465385242236,-0.229
1679515465392939112,-0.233
1679515465400635988,-0.233
1679515465408332864,-0.22
1679515465416029740,-0.22
1679515465423726652,-0.262,53
1679515465431423528,-0.316
1679515465439120404,-0.318
1679515465446817280,-0.3
1679515465454514156,-0.308
1679515465462211032,-0.312
1679515465469907908,-0.295
1679515465477604784,-0.318
1679515465485301660,-0.364
1679515465492998536,-0.352
1679515465500695412,-0.318
1679515465508392288,-0.333
1679515465516089164,-0.339
1679515465523786040,-0.3
1679515465531482916,-0.268
1679515465539179792,-0.264
1679515465546876668,-0.258
1679515465554573544,-0.26
1679515465562270420,-0.3
1679515465569967296,-0.335
1679515465577664172,-0.316
1679515465585361048,-0.277
1679515465593057924,-0.266
1679515465600754800,-0.277
1679515465608451676,-0.264
1679515465616148552,-0.227
1679515465623845428,-0.2
1679515465631542304,-0.189
1679515465639239180,-0.17200000000000001
1679515465646936056,-0.15
1679515465654632932,-0.137
1679515465662329808,-0.127
1679515465670026684,-0.10200000000000001
1679515465677723560,-0.068
1679515465685420436,-0.052000000000000005
1679515465693117312,-0.06
1679515465700814188,-0.052000000000000005
1679515465708511064,-0.018000000000000002
1679515465716207940,0.002
1679515465723904816,0.008
1679515465731601692,0.022
1679515465739298568,0.037
1679515465746995444,0.037
1679515465754692320,0.041
1679515465762389196,0.068
1679515465770086072,0.095
1679515465777782948,0.097
1679515465785479824,0.085
1679515465793176700,0.093
1679515465800873576,0.11
1679515465808570452,0.091
1679515465816267328,0.075
1679515465823964204,0.091
1679515465831661080,0.1
1679515465839357956,0.08700000000000001
1679515465847054832,0.093
1679515465854751708,0.122
1679515465862448584,0.14300000000000002
1679515465870145460,0.139
1679515465877842336,0.129
1679515465885539212,0.14100000000000001
1679515465893236088,0.16
1679515465900932964,0.166
1679515465908629840,0.17
1679515465916326716,0.189
1679515465924023592,0.17200000000000001
1679515465931720468,0.10400000000000001
1679515465939417344,0.062
1679515465947114220,0.08700000000000001
1679515465954811096,0.10400000000000001
1679515465962507972,0.08700000000000001
1679515465970204848,0.083
1679515465977901724,0.1
1679515465985598636,0.112,53
1679515465993295512,0.112
1679515466000992388,0.129
1679515466008689264,0.147
1679515466016386140,0.106
1679515466024083016,0.029
1679515466031779892,0.008
1679515466039476768,0.045
1679515466047173644,0.062
1679515466054870520,0.043000000000000003
1679515466062567396,0.031
1679515466070264272,0.06
1679515466077961148,0.07200000000000001
1679515466085658024,0.047
1679515466093354900,0.056
1679515466101051776,0.085
1679515466108748652,0.066
1679515466116445528,0.041
1679515466124142404,0.062
1679515466131839280,0.091
1679515466139536156,0.097
1679515466147233032,0.1
1679515466154929908,0.10400000000000001
1679515466162626784,0.112
1679515466170323660,0.108
1679515466178020536,0.093
1679515466185717412,0.145
1679515466193414288,0.387
1679515466201111164,0.8180000000000001
1679515466208808040,1.181
1679515466216504916,1.047
1679515466224201792,0.377
1679515466231898668,-0.254
1679515466239595544,-0.364
1679515466247292420,-0.10200000000000001
1679515466254989296,0.1
1679515466262686172,0.127
1679515466270383048,0.14100000000000001
1679515466278079924,0.185
1679515466285776800,0.195
1679515466293473676,0.166
1679515466301170552,0.133
1679515466308867428,0.12
1679515466316564304,0.129
1679515466324261180,0.135
1679515466331958056,0.14300000000000002
1679515466339654932,0.154
1679515466347351808,0.154
1679515466355048684,0.156
1679515466362745560,0.179,,1180
1679515466370442436,0.20800000000000002
1679515466378139312,0.214
1679515466385836188,0.20400000000000001
1679515466393533064,0.214
1679515466401229940,0.245
1679515466408926816,0.264
1679515466416623692,0.275
1679515466424320568,0.28300000000000003
1679515466432017444,0.241
1679515466439714320,0.183
1679515466447411196,0.197
1679515466455108072,0.252
1679515466462804948,0.28300000000000003
1679515466470501824,0.295
1679515466478198700,0.3
1679515466485895576,0.302
1679515466493592452,0.28300000000000003
1679515466501289328,0.227
1679515466508986204,0.17200000000000001
1679515466516683080,0.129
1679515466524379956,0.045
1679515466532076832,-0.064
1679515466539773708,-0.145
1679515466547470620,-0.225
1679515466555167566,-0.316
1679515466562864512,-0.366
1679515466570561458,-0.383
1679515466578258404,-0.393
1679515466585955350,-0.431
1679515466593652296,-0.5
1679515466601349242,-0.514
1679515466609046188,-0.481
1679515466616743134,-0.487
1679515466624440080,-0.497
1679515466632137026,-0.458
1679515466639833972,-0.41600000000000004
1679515466647530918,-0.406
1679515466655227864,-0.397
1679515466662924810,-0.377
1679515466670621756,-0.352
1679515466678318702,-0.333
1679515466686015648,-0.312
1679515466693712594,-0.279
1679515466701409540,-0.252
1679515466709106486,-0.252
1679515466716803432,-0.247
1679515466724500378,-0.21
1679515466732197324,-0.177
1679515466739894270,-0.17
1679515466747591216,-0.164
1679515466755288162,-0.145
1679515466762985108,-0.129
1679515466770682054,-0.11800000000000001
1679515466778379000,-0.10400000000000001
1679515466786075946,-0.091
1679515466793772892,-0.116
1679515466801469838,-0.164
1679515466809166784,-0.162
1679515466816863730,-0.122
1679515466824560676,-0.10200000000000001
1679515466832257622,-0.097
1679515466839954568,-0.079
1679515466847651514,-0.064
1679515466855348460,-0.058
1679515466863045406,-0.047
1679515466870742352,-0.025
1679515466878439298,0.004
1679515466886136244,0.016
1679515466893833190,0.006
1679515466901530136,0.014
1679515466909227082,0.047
1679515466916924028,0.064
1679515466924620974,0.052000000000000005
1679515466932317920,0.002
1679515466940014866,-0.062
1679515466947711812,-0.081
1679515466955408758,-0.062
1679515466963105704,-0.041
1679515466970802650,-0.02
1679515466978499596,-0.012
1679515466986196542,-0.022
1679515466993893488,-0.01
1679515467001590434,0.02
1679515467009287380,0.033
1679515467016984326,0.039
1679515467024681272,0.06
1679515467032378218,0.06
1679515467040075164,0.027
1679515467047772110,0.016
1679515467055469056,0.043000000000000003
1679515467063166002,0.066
1679515467070862948,0.062
1679515467078559894,0.058
1679515467086256840,0.07200000000000001
1679515467093953786,0.093
1679515467101650732,0.1
1679515467109347692,0.112,53
1679515467117044498,0.135
1679515467124741304,0.137
1679515467132438110,0.127
1679515467140134916,0.14100000000000001
1679515467147831722,0.17
1679515467155528528,0.183
1679515467163225334,0.179
1679515467170922140,0.17
1679515467178618946,0.177
1679515467186315752,0.164
1679515467194012558,0.112
1679515467201709364,0.091
1679515467209406170,0.114
1679515467217102976,0.106
1679515467224799782,0.083
1679515467232496588,0.10200000000000001
1679515467240193394,0.131
1679515467247890200,0.129
1679515467255587006,0.114
1679515467263283812,0.112
1679515467270980618,0.133
1679515467278677424,0.158
1679515467286374230,0.156
1679515467294071036,0.158
1679515467301767842,0.17200000000000001
1679515467309464648,0.15
1679515467317161454,0.12
1679515467324858260,0.145
1679515467332555066,0.164
1679515467340251872,0.152
1679515467347948678,0.14100000000000001
1679515467355645484,0.145
1679515467363342290,0.152
1679515467371039096,0.158
1679515467378735902,0.166
1679515467386432708,0.185
1679515467394129514,0.193
1679515467401826320,0.16
1679515467409523126,0.158
1679515467417219932,0.337
1679515467424916738,0.737
1679515467432613544,1.158
1679515467440310350,1.143
1679515467448007156,0.487
1679515467455703962,-0.264
1679515467463400768,-0.508
1679515467471097574,-0.3
1679515467478794380,-0.047
1679515467486491186,0.025
1679515467494187992,0.008
1679515467501884798,0.027
1679515467509581604,0.064
1679515467517278410,0.079
1679515467524975216,0.07
1679515467532672022,0.045
1679515467540368828,0.018000000000000002
1679515467548065634,0.016
1679515467555762440,0.029,,1193
1679515467563459246,0.045
1679515467571156052,0.064
1679515467578852858,0.066
1679515467586549664,0.056
1679515467594246470,0.066
1679515467601943276,0.1
1679515467609640082,0.11
1679515467617336888,0.11800000000000001
1679515467625033694,0.145
1679515467632730500,0.16
1679515467640427306,0.162
1679515467648124112,0.183
1679515467655820918,0.229
1679515467663517724,0.268
1679515467671214590,0.289
1679515467678911884,0.3
1679515467686609178,0.306
1679515467694306472,0.302
1679515467702003766,0.297
1679515467709701060,0.304
1679515467717398354,0.297
1679515467725095648,0.22
1679515467732792942,0.083
1679515467740490236,-0.027
1679515467748187530,-0.1
1679515467755884824,-0.17500000000000002
1679515467763582118,-0.247
1679515467771279412,-0.312
1679515467778976706,-0.375
1679515467786674000,-0.418
1679515467794371294,-0.422
1679515467802068588,-0.404
1679515467809765882,-0.393
1679515467817463176,-0.4
1679515467825160470,-0.395
1679515467832857764,-0.362
1679515467840555058,-0.329
1679515467848252352,-0.318
1679515467855949646,-0.31
1679515467863646940,-0.293
1679515467871344234,-0.27
1679515467879041528,-0.256
1679515467886738822,-0.23700000000000002
1679515467894436116,-0.20600000000000002
1679515467902133410,-0.181
1679515467909830704,-0.187
1679515467917527998,-0.183
1679515467925225292,-0.145
1679515467932922586,-0.116
1679515467940619880,-0.14100000000000001
1679515467948317174,-0.202
1679515467956014468,-0.222
1679515467963711762,-0.197
1679515467971409056,-0.191
1679515467979106350,-0.183
1679515467986803644,-0.147
1679515467994500938,-0.125
1679515468002198232,-0.135
1679515468009895526,-0.131
1679515468017592820,-0.112
1679515468025290114,-0.133
1679515468032987408,-0.164
1679515468040684702,-0.15
1679515468048381996,-0.131
1679515468056079290,-0.129
1679515468063776584,-0.11800000000000001
1679515468071473878,-0.089
1679515468079171172,-0.06
1679515468086868466,-0.05
1679515468094565760,-0.056
1679515468102263054,-0.043000000000000003
1679515468109960348,-0.01
1679515468117657642,0.006
1679515468125354936,0.01
1679515468133052230,0.031
1679515468140749524,0.045
1679515468148446818,0.041
1679515468156144112,0.05
1679515468163841406,0.077
1679515468171538700,0.10400000000000001
1679515468179235994,0.106
1679515468186933288,0.095
1679515468194630582,0.106
1679515468202327876,0.131
1679515468210025170,0.139
1679515468217722464,0.14300000000000002
1679515468225419758,0.164
1679515468233117092,0.168,53
1679515468240813968,0.158
1679515468248510844,0.166
1679515468256207720,0.193
1679515468263904596,0.202
1679515468271601472,0.17
1679515468279298348,0.133
1679515468286995224,0.137
1679515468294692100,0.135
1679515468302388976,0.083
1679515468310085852,0.05
1679515468317782728,0.068
1679515468325479604,0.066
1679515468333176480,0.041
1679515468340873356,0.056
1679515468348570232,0.08700000000000001
1679515468356267108,0.1
1679515468363963984,0.095
1679515468371660860,0.095
1679515468379357736,0.11
1679515468387054612,0.122
1679515468394751488,0.127
1679515468402448364,0.14300000000000002
1679515468410145240,0.162
1679515468417842116,0.154
1679515468425538992,0.14100000000000001
1679515468433235868,0.162
1679515468440932744,0.17
1679515468448629620,0.11800000000000001
1679515468456326496,0.058
1679515468464023372,0.05
1679515468471720248,0.058
1679515468479417124,0.05
1679515468487114000,0.062
1679515468494810876,0.10200000000000001
1679515468502507752,0.135
1679515468510204628,0.147
1679515468517901504,0.127
1679515468525598380,0.095
1679515468533295256,0.093
1679515468540992132,0.10400000000000001
1679515468548689008,0.093
1679515468556385884,0.083
1679515468564082760,0.079
1679515468571779636,0.068
1679515468579476512,0.07200000000000001
1679515468587173388,0.1
1679515468594870264,0.112
1679515468602567140,0.095
1679515468610264016,0.08700000000000001
1679515468617960892,0.091
1679515468625657768,0.116
1679515468633354644,0.281
1679515468641051520,0.679
1679515468648748396,1.102
1679515468656445272,1.083
1679515468664142148,0.487
1679515468671839024,-0.168
1679515468679535900,-0.375
1679515468687232776,-0.189
1679515468694929652,0.035
1679515468702626528,0.116
1679515468710323404,0.137
1679515468718020280,0.158
1679515468725717156,0.17
1679515468733414032,0.183
1679515468741110908,0.197,,1188
1679515468748807784,0.195
1679515468756504660,0.183
1679515468764201536,0.164
1679515468771898412,0.14300000000000002
1679515468779595288,0.137
1679515468787292164,0.131
1679515468794989076,0.135
1679515468802685952,0.156
1679515468810382828,0.168
1679515468818079704,0.17500000000000002
1679515468825776580,0.191
1679515468833473456,0.185
1679515468841170332,0.129
1679515468848867208,0.097
1679515468856564084,0.131
1679515468864260960,0.166
1679515468871957836,0.154
1679515468879654712,0.129
1679515468887351588,0.139
1679515468895048464,0.17200000000000001
1679515468902745340,0.187
1679515468910442216,0.185
1679515468918139092,0.17200000000000001
1679515468925835968,0.139
1679515468933532844,0.083
1679515468941229720,0.039
1679515468948926596,0.002
1679515468956623472,-0.108
1679515468964320348,-0.254
1679515468972017224,-0.322
1679515468979714100,-0.341
1679515468987410976,-0.379
1679515468995107852,-0.40800000000000003
1679515469002804728,-0.41600000000000004
1679515469010501604,-0.452
1679515469018198480,-0.5
1679515469025895356,-0.495
1679515469033592232,-0.452
1679515469041289108,-0.425
1679515469048985984,-0.41200000000000003
1679515469056682860,-0.395
1679515469064379736,-0.377
1679515469072076612,-0.356
1679515469079773488,-0.335
1679515469087470364,-0.312
1679515469095167240,-0.275
1679515469102864116,-0.247
1679515469110560992,-0.25
1679515469118257868,-0.241
1679515469125954744,-0.197
1679515469133651620,-0.162
1679515469141348496,-0.154
1679515469149045372,-0.14300000000000002
1679515469156742248,-0.125
1679515469164439124,-0.116
1679515469172136000,-0.106
1679515469179832876,-0.085
1679515469187529752,-0.056
1679515469195226628,-0.043000000000000003
1679515469202923504,-0.052000000000000005
1679515469210620380,-0.047
1679515469218317256,-0.016
1679515469226014132,0.006
1679515469233711008,0.008
1679515469241407884,0.018000000000000002
1679515469249104760,0.016
1679515469256801636,-0.029
1679515469264498512,-0.06
1679515469272195388,-0.035
1679515469279892264,-0.004
1679515469287589140,-0.006
1679515469295286016,-0.018000000000000002
1679515469302982892,-0.004
1679515469310679768,0.025
1679515469318376644,0.037
1679515469326073520,0.041
1679515469333770396,0.06
1679515469341467272,0.068
1679515469349164148,0.064
1679515469356861060,0.07200000000000001,52
1679515469364557936,0.097
1679515469372254812,0.11800000000000001
1679515469379951688,0.11800000000000001
1679515469387648564,0.108
1679515469395345440,0.114
1679515469403042316,0.12
1679515469410739192,0.081
1679515469418436068,0.039
1679515469426132944,0.052000000000000005
1679515469433829820,0.058
1679515469441526696,0.037
1679515469449223572,0.035
1679515469456920448,0.016
1679515469464617324,-0.054
1679515469472314200,-0.091
1679515469480011076,-0.079
1679515469487707952,-0.066
1679515469495404828,-0.064
1679515469503101704,-0.077
1679515469510798580,-0.083
1679515469518495456,-0.066
1679515469526192332,-0.06
1679515469533889208,-0.066
1679515469541586084,-0.043000000000000003
1679515469549282960,-0.01
1679515469556979836,0.0
1679515469564676712,-0.006
1679515469572373588,-0.006
1679515469580070464,0.008
1679515469587767340,0.02
1679515469595464216,0.027
1679515469603161092,0.05
1679515469610857968,0.07200000000000001
1679515469618554844,0.062
1679515469626251720,0.05
1679515469633948596,0.075
1679515469641645472,0.10200000000000001
1679515469649342348,0.108
1679515469657039224,0.11
1679515469664736100,0.116
1679515469672432976,0.12
1679515469680129852,0.11800000000000001
1679515469687826728,0.122
1679515469695523604,0.15
1679515469703220480,0.177
1679515469710917356,0.179
1679515469718614232,0.191
1679515469726311108,0.23700000000000002
1679515469734007984,0.254
1679515469741704860,0.23500000000000001
1679515469749401736,0.20800000000000002
1679515469757098612,0.17500000000000002
1679515469764795488,0.156
1679515469772492364,0.156
1679515469780189240,0.158
1679515469787886116,0.17500000000000002
1679515469795582992,0.187
1679515469803279868,0.17
1679515469810976744,0.164
1679515469818673620,0.191
1679515469826370496,0.191
1679515469834067372,0.17
1679515469841764248,0.258
1679515469849461124,0.5660000000000001
1679515469857158000,1.018
1679515469864854876,1.256
1679515469872551752,0.906
1679515469880248628,0.195
1679515469887945504,-0.279
1679515469895642380,-0.304
1679515469903339256,-0.07200000000000001
1679515469911036132,0.137
1679515469918733044,0.191
1679515469926430338,0.187
1679515469934127632,0.212,,1193
1679515469941824926,0.216
1679515469949522220,0.158
1679515469957219514,0.077
1679515469964916808,0.016
1679515469972614102,-0.008
1679515469980311396,-0.014
1679515469988008690,-0.041
1679515469995705984,-0.077
1679515470003403278,-0.08700000000000001
1679515470011100572,-0.075
1679515470018797866,-0.058
1679515470026495160,-0.039
1679515470034192454,-0.029
1679515470041889748,-0.025
1679515470049587042,0.002
1679515470057284336,0.041
1679515470064981630,0.056
1679515470072678924,0.039
1679515470080376218,0.031
1679515470088073512,0.062
1679515470095770806,0.093
1679515470103468100,0.089
1679515470111165394,0.085
1679515470118862688,0.097
1679515470126559982,0.079
1679515470134257276,0.043000000000000003
1679515470141954570,0.05
1679515470149651864,0.062
1679515470157349158,0.027
1679515470165046452,-0.033
1679515470172743746,-0.095
1679515470180441040,-0.15
1679515470188138334,-0.197
1679515470195835628,-0.23500000000000001
1679515470203532922,-0.245
1679515470211230216,-0.247
1679515470218927510,-0.27
1679515470226624804,-0.28300000000000003
1679515470234322098,-0.275
1679515470242019392,-0.291
1679515470249716686,-0.32
1679515470257413980,-0.312
1679515470265111274,-0.291
1679515470272808568,-0.281
1679515470280505862,-0.264
1679515470288203156,-0.23700000000000002
1679515470295900450,-0.202
1679515470303597744,-0.181
1679515470311295038,-0.181
1679515470318992332,-0.17200000000000001
1679515470326689626,-0.133
1679515470334386920,-0.10200000000000001
1679515470342084214,-0.095
1679515470349781508,-0.081
1679515470357478802,-0.064
1679515470365176096,-0.058
1679515470372873390,-0.052000000000000005
1679515470380570684,-0.031
1679515470388267978,-0.002
1679515470395965272,0.01
1679515470403662566,-0.004
1679515470411359860,-0.002
1679515470419057154,0.029
1679515470426754448,0.045
1679515470434451742,0.045
1679515470442149036,0.058
1679515470449846330,0.07
1679515470457543624,0.066
1679515470465240918,0.037
1679515470472938212,-0.018000000000000002
1679515470480635548,-0.068,52
1679515470488332006,-0.11
1679515470496028464,-0.147
1679515470503724922,-0.14300000000000002
1679515470511421380,-0.108
1679515470519117838,-0.097
1679515470526814296,-0.093
1679515470534510754,-0.07
1679515470542207212,-0.075
1679515470549903670,-0.127
1679515470557600128,-0.164
1679515470565296586,-0.14300000000000002
1679515470572993044,-0.12
1679515470580689502,-0.131
1679515470588385960,-0.139
1679515470596082418,-0.116
1679515470603778876,-0.091
1679515470611475334,-0.083
1679515470619171792,-0.066
1679515470626868250,-0.041
1679515470634564708,-0.035
1679515470642261166,-0.039
1679515470649957624,-0.018000000000000002
1679515470657654082,0.016
1679515470665350540,0.035
1679515470673046998,0.035
1679515470680743456,0.039
1679515470688439914,0.056
1679515470696136372,0.07200000000000001
1679515470703832830,0.079
1679515470711529288,0.095
1679515470719225746,0.12
1679515470726922204,0.114
1679515470734618662,0.083
1679515470742315120,0.07200000000000001
1679515470750011578,0.097
1679515470757708036,0.112
1679515470765404494,0.10400000000000001
1679515470773100952,0.106
1679515470780797410,0.12
1679515470788493868,0.127
1679515470796190326,0.133
1679515470803886784,0.156
1679515470811583242,0.17200000000000001
1679515470819279700,0.162
1679515470826976158,0.154
1679515470834672616,0.177
1679515470842369074,0.202
1679515470850065532,0.20400000000000001
1679515470857761990,0.202
1679515470865458448,0.20600000000000002
1679515470873154906,0.21
1679515470880851364,0.20600000000000002
1679515470888547822,0.20800000000000002
1679515470896244280,0.225
1679515470903940738,0.23700000000000002
1679515470911637196,0.233
1679515470919333654,0.241
1679515470927030112,0.279
1679515470934726570,0.316
1679515470942423028,0.31
1679515470950119486,0.28500000000000003
1679515470957815944,0.28700000000000003
1679515470965512402,0.277
1679515470973208860,0.197
1679515470980905318,0.095
1679515470988601776,0.062
1679515470996298234,0.066
1679515471003994692,0.043000000000000003
1679515471011691150,0.037
1679515471019387608,0.066
1679515471027084066,0.081
1679515471034780524,0.066
1679515471042477014,0.054,52
1679515471050174308,0.108
1679515471057871602,0.343
1679515471065568896,0.787
1679515471073266190,1.139
1679515471080963484,0.9560000000000001
1679515471088660778,0.26
1679515471096358072,-0.34700000000000003
1679515471104055366,-0.418
1679515471111752660,-0.145
1679515471119449954,0.006
1679515471127147248,-0.02
1679515471134844542,-0.012
1679515471142541836,0.02
1679515471150239130,0.006
1679515471157936424,0.01,,1226
1679515471165633718,0.052000000000000005
1679515471173331012,0.077
1679515471181028306,0.077
1679515471188725600,0.079
1679515471196422894,0.097
1679515471204120188,0.11800000000000001
1679515471211817482,0.127
1679515471219514776,0.122
1679515471227212070,0.10200000000000001
1679515471234909364,0.066
1679515471242606658,0.058
1679515471250303952,0.081
1679515471258001246,0.112
1679515471265698540,0.133
1679515471273395834,0.139
1679515471281093128,0.152
1679515471288790422,0.168
1679515471296487716,0.17
1679515471304185010,0.162
1679515471311882304,0.187
1679515471319579598,0.229
1679515471327276892,0.22
1679515471334974186,0.189
1679515471342671480,0.183
1679515471350368774,0.17500000000000002
1679515471358066068,0.122
1679515471365763362,0.07
1679515471373460656,0.02
1679515471381157950,-0.041
1679515471388855244,-0.108
1679515471396552538,-0.16
1679515471404249832,-0.187
1679515471411947126,-0.20800000000000002
1679515471419644420,-0.245
1679515471427341714,-0.266
1679515471435039008,-0.245
1679515471442736302,-0.225
1679515471450433596,-0.225
1679515471458130890,-0.225
1679515471465828184,-0.233
1679515471473525478,-0.28500000000000003
1679515471481222772,-0.362
1679515471488920066,-0.385
1679515471496617360,-0.34700000000000003
1679515471504314654,-0.331
1679515471512011948,-0.341
1679515471519709242,-0.322
1679515471527406536,-0.279
1679515471535103830,-0.254
1679515471542801124,-0.241
1679515471550498418,-0.22
1679515471558195712,-0.202
1679515471565893006,-0.202
1679515471573590300,-0.197
1679515471581287594,-0.17
1679515471588984888,-0.137
1679515471596682182,-0.131
1679515471604379516,-0.14300000000000002
1679515471612076253,-0.131
1679515471619772990,-0.095
1679515471627469727,-0.081
1679515471635166464,-0.077
1679515471642863201,-0.058
1679515471650559938,-0.054
1679515471658256675,-0.095
1679515471665953412,-0.139
1679515471673650149,-0.127
1679515471681346886,-0.091
1679515471689043623,-0.097
1679515471696740360,-0.114
1679515471704437097,-0.093
1679515471712133834,-0.075
1679515471719830571,-0.093
1679515471727527308,-0.1
1679515471735224045,-0.07200000000000001
1679515471742920782,-0.062
1679515471750617519,-0.07
1679515471758314256,-0.056
1679515471766010993,-0.02
1679515471773707730,0.004
1679515471781404467,0.004
1679515471789101204,0.004
1679515471796797941,0.02
1679515471804494678,0.041
1679515471812191415,0.052000000000000005
1679515471819888152,0.066
1679515471827584889,0.089
1679515471835281626,0.093
1679515471842978363,0.083
1679515471850675100,0.097
1679515471858371837,0.129
1679515471866068574,0.14100000000000001
1679515471873765311,0.139
1679515471881462048,0.139
1679515471889158785,0.152
1679515471896855522,0.162
1679515471904552259,0.166
1679515471912248996,0.181
1679515471919945733,0.202
1679515471927642470,0.195
1679515471935339207,0.181
1679515471943035944,0.197
1679515471950732681,0.227
1679515471958429418,0.231
1679515471966126155,0.20400000000000001
1679515471973822892,0.16
1679515471981519629,0.10200000000000001
1679515471989216366,0.031
1679515471996913103,0.01
1679515472004609840,0.037
1679515472012306577,0.045
1679515472020003314,0.027
1679515472027700051,0.027
1679515472035396788,0.054
1679515472043093525,0.075
1679515472050790262,0.077
1679515472058486999,0.081
1679515472066183736,0.089
1679515472073880473,0.097
1679515472081577210,0.10200000000000001
1679515472089273947,0.114
1679515472096970684,0.137
1679515472104667421,0.152
1679515472112364158,0.14100000000000001
1679515472120060895,0.135
1679515472127757632,0.156
1679515472135454369,0.168
1679515472143151106,0.16
1679515472150847843,0.17
1679515472158544580,0.193
1679515472166241326,0.20400000000000001,52
1679515472173938411,0.222
1679515472181635496,0.252
1679515472189332581,0.262
1679515472197029666,0.243
1679515472204726751,0.20800000000000002
1679515472212423836,0.158
1679515472220120921,0.122
1679515472227818006,0.085
1679515472235515091,0.025
1679515472243212176,0.004
1679515472250909261,0.02
1679515472258606346,0.01
1679515472266303431,0.004
1679515472274000516,0.027
1679515472281697601,0.039
1679515472289394686,0.018000000000000002
1679515472297091771,0.083
1679515472304788856,0.379
1679515472312485941,0.843
1679515472320183026,1.091
1679515472327880111,0.756
1679515472335577196,0.06
1679515472343274281,-0.40800000000000003
1679515472350971366,-0.387
1679515472358668451,-0.112
1679515472366365536,0.062
1679515472374062621,0.085,,1216
1679515472381759706,0.08700000000000001
1679515472389456791,0.10200000000000001
1679515472397153876,0.116
1679515472404850961,0.137
1679515472412548046,0.15
1679515472420245131,0.164
1679515472427942216,0.185
1679515472435639301,0.187
1679515472443336386,0.177
1679515472451033471,0.177
1679515472458730556,0.162
1679515472466427641,0.133
1679515472474124726,0.114
1679515472481821811,0.066
1679515472489518896,-0.006
1679515472497215981,-0.02
1679515472504913066,-0.006
1679515472512610151,-0.025
1679515472520307236,-0.039
1679515472528004321,-0.035
1679515472535701406,-0.031
1679515472543398491,-0.025
1679515472551095576,-0.016
1679515472558792661,-0.02
1679515472566489746,-0.039
1679515472574186831,-0.054
1679515472581883916,-0.041
1679515472589581001,-0.029
1679515472597278086,-0.033
1679515472604975171,-0.029
1679515472612672256,-0.047
1679515472620369341,-0.114
1679515472628066426,-0.179
1679515472635763511,-0.20800000000000002
1679515472643460596,-0.23500000000000001
1679515472651157681,-0.277
1679515472658854766,-0.302
1679515472666551851,-0.31
1679515472674248936,-0.312
1679515472681946021,-0.308
1679515472689643106,-0.289
1679515472697340191,-0.279
1679515472705037276,-0.312
1679515472712734361,-0.352
1679515472720431446,-0.329
1679515472728128572,-0.281
1679515472735825378,-0.266
1679515472743522184,-0.258
1679515472751218990,-0.23700000000000002
1679515472758915796,-0.229
1679515472766612602,-0.252
1679515472774309408,-0.28700000000000003
1679515472782006214,-0.279
1679515472789703020,-0.241
1679515472797399826,-0.233
1679515472805096632,-0.243
1679515472812793438,-0.22
1679515472820490244,-0.179
1679515472828187050,-0.162
1679515472835883856,-0.152
1679515472843580662,-0.127
1679515472851277468,-0.114
1679515472858974274,-0.116
1679515472866671080,-0.10400000000000001
1679515472874367886,-0.07
1679515472882064692,-0.043000000000000003
1679515472889761498,-0.039
1679515472897458304,-0.045
1679515472905155110,-0.029
1679515472912851916,0.0
1679515472920548722,0.008
1679515472928245528,0.016
1679515472935942334,0.041
1679515472943639140,0.043000000000000003
1679515472951335946,0.01
1679515472959032752,0.004
1679515472966729558,0.037
1679515472974426364,0.058
1679515472982123170,0.022
1679515472989819976,-0.047
1679515472997516782,-0.066
1679515473005213588,-0.037
1679515473012910394,-0.037
1679515473020607200,-0.031
1679515473028304006,-0.004
1679515473036000812,-0.002
1679515473043697618,-0.014
1679515473051394424,0.008
1679515473059091230,0.043000000000000003
1679515473066788036,0.056
1679515473074484842,0.054
1679515473082181648,0.058
1679515473089878454,0.075
1679515473097575260,0.08700000000000001
1679515473105272066,0.095
1679515473112968872,0.116
1679515473120665678,0.137
1679515473128362484,0.131
1679515473136059290,0.12
1679515473143756096,0.145
1679515473151452902,0.17500000000000002
1679515473159149708,0.177
1679515473166846514,0.17200000000000001
1679515473174543320,0.177
1679515473182240126,0.189
1679515473189936932,0.197
1679515473197633738,0.179
1679515473205330544,0.164
1679515473213027350,0.17500000000000002
1679515473220724156,0.168
1679515473228420962,0.156
1679515473236117768,0.179
1679515473243814574,0.202
1679515473251511380,0.197
1679515473259208186,0.197
1679515473266904992,0.20600000000000002
1679515473274601798,0.20600000000000002
1679515473282298604,0.20600000000000002
1679515473289995468,0.216,52
1679515473297692344,0.23700000000000002
1679515473305389220,0.241
1679515473313086096,0.218
1679515473320782972,0.21
1679515473328479848,0.233
1679515473336176724,0.222
1679515473343873600,0.162
1679515473351570476,0.127
1679515473359267352,0.137
1679515473366964228,0.135
1679515473374661104,0.122
1679515473382357980,0.135
1679515473390054856,0.156
1679515473397751732,0.145
1679515473405448608,0.125
1679515473413145484,0.139
1679515473420842360,0.177
1679515473428539236,0.2
1679515473436236112,0.202
1679515473443932988,0.177
1679515473451629864,0.12
1679515473459326740,0.091
1679515473467023616,0.1
1679515473474720492,0.112
1679515473482417368,0.12
1679515473490114244,0.097
1679515473497811120,0.025
1679515473505507996,-0.01
1679515473513204872,0.014
1679515473520901748,0.025
1679515473528598624,0.02
1679515473536295500,0.037
1679515473543992376,0.027
1679515473551689252,0.012
1679515473559386128,0.15
1679515473567083004,0.522
1679515473574779880,0.962
1679515473582476756,1.043
1679515473590173632,0.525,,1212
1679515473597870508,-0.162
1679515473605567384,-0.468
1679515473613264260,-0.34500000000000003
1679515473620961136,-0.083
1679515473628658012,0.052000000000000005
1679515473636354888,0.052000000000000005
1679515473644051764,0.047
1679515473651748640,0.083
1679515473659445516,0.112
1679515473667142392,0.125
1679515473674839268,0.129
1679515473682536144,0.11800000000000001
1679515473690233020,0.085
1679515473697929896,0.056
1679515473705626772,0.062
1679515473713323648,0.08700000000000001
1679515473721020524,0.079
1679515473728717400,0.029
1679515473736414276,0.006
1679515473744111152,0.033
1679515473751808028,0.043000000000000003
1679515473759504904,0.014
1679515473767201780,-0.014
1679515473774898656,-0.033
1679515473782595532,-0.062
1679515473790292408,-0.077
1679515473797989284,-0.054
1679515473805686160,-0.018000000000000002
1679515473813383036,0.002
1679515473821079912,0.006
1679515473828776788,0.025
1679515473836473664,0.066
1679515473844170540,0.097
1679515473851867454,0.10400000000000001
1679515473859564330,0.10400000000000001
1679515473867261206,0.095
1679515473874958082,0.07200000000000001
1679515473882654958,0.039
1679515473890351834,0.006
1679515473898048710,-0.022
1679515473905745586,-0.064
1679515473913442462,-0.116
1679515473921139338,-0.14300000000000002
1679515473928836214,-0.154
1679515473936533090,-0.195
1679515473944229966,-0.233
1679515473951926842,-0.218
1679515473959623718,-0.20800000000000002
1679515473967320594,-0.247
1679515473975017470,-0.289
1679515473982714346,-0.277
1679515473990411222,-0.23900000000000002
1679515473998108098,-0.258
1679515474005804974,-0.327
1679515474013501850,-0.34500000000000003
1679515474021198726,-0.31
1679515474028895602,-0.3
1679515474036592478,-0.291
1679515474044289354,-0.258
1679515474051986230,-0.23900000000000002
1679515474059683106,-0.243
1679515474067379982,-0.222
1679515474075076858,-0.181
1679515474082773734,-0.152
1679515474090470610,-0.139
1679515474098167486,-0.129
1679515474105864362,-0.10200000000000001
1679515474113561238,-0.07200000000000001
1679515474121258114,-0.062
1679515474128954990,-0.054
1679515474136651866,-0.033
1679515474144348742,-0.02
1679515474152045618,-0.027
1679515474159742494,-0.012
1679515474167439370,0.022
1679515474175136246,0.037
1679515474182833122,0.01
1679515474190529998,-0.014
1679515474198226874,0.0
1679515474205923750,0.022
1679515474213620626,0.029
1679515474221317502,0.047
1679515474229014378,0.077
1679515474236711254,0.07200000000000001
1679515474244408130,0.058
1679515474252105006,0.079
1679515474259801882,0.106
1679515474267498758,0.11
1679515474275195634,0.106
1679515474282892510,0.108
1679515474290589386,0.125
1679515474298286262,0.14100000000000001
1679515474305983138,0.145
1679515474313680014,0.164
1679515474321376890,0.187
1679515474329073766,0.177
1679515474336770642,0.16
1679515474344467518,0.179
1679515474352164394,0.195
1679515474359861270,0.17200000000000001
1679515474367558146,0.154
1679515474375255022,0.166
1679515474382951898,0.179
1679515474390648774,0.177
1679515474398345650,0.183
1679515474406042526,0.20400000000000001
1679515474413739438,0.22,51
1679515474421436314,0.21
1679515474429133190,0.177
1679515474436830066,0.158
1679515474444526942,0.166
1679515474452223818,0.17
1679515474459920694,0.166
1679515474467617570,0.164
1679515474475314446,0.14100000000000001
1679515474483011322,0.091
1679515474490708198,0.062
1679515474498405074,0.052000000000000005
1679515474506101950,-0.018000000000000002
1679515474513798826,-0.106
1679515474521495702,-0.10200000000000001
1679515474529192578,-0.064
1679515474536889454,-0.062
1679515474544586330,-0.06
1679515474552283206,-0.039
1679515474559980082,-0.031
1679515474567676958,-0.045
1679515474575373834,-0.043000000000000003
1679515474583070710,-0.018000000000000002
1679515474590767586,0.006
1679515474598464462,0.006
1679515474606161338,-0.006
1679515474613858214,-0.004
1679515474621555090,0.016
1679515474629251966,0.02
1679515474636948842,0.031
1679515474644645718,0.064
1679515474652342594,0.091
1679515474660039470,0.10400000000000001
1679515474667736346,0.11
1679515474675433222,0.077
1679515474683130098,0.037
1679515474690826974,0.033
1679515474698523850,0.025
1679515474706220726,0.018000000000000002
1679515474713917602,0.033
1679515474721614478,0.039
1679515474729311354,0.043000000000000003
1679515474737008230,0.066
1679515474744705106,0.07200000000000001
1679515474752401982,0.06
1679515474760098858,0.068
1679515474767795734,0.083
1679515474775492610,0.093
1679515474783189486,0.20600000000000002
1679515474790886362,0.552
1679515474798583238,1.045,,1210
1679515474806280114,1.235
1679515474813976990,0.747
1679515474821673866,-0.008
1679515474829370742,-0.389
1679515474837067618,-0.37
1679515474844764494,-0.179
1679515474852461370,0.039
1679515474860158246,0.14100000000000001
1679515474867855122,0.14100000000000001
1679515474875551998,0.147
1679515474883248874,0.17
1679515474890945750,0.183
1679515474898642626,0.193
1679515474906339502,0.20600000000000002
1679515474914036378,0.21
1679515474921733254,0.181
1679515474929430130,0.11800000000000001
1679515474937127006,0.07200000000000001
1679515474944823882,0.075
1679515474952520758,0.091
1679515474960217634,0.081
1679515474967914510,0.045
1679515474975611422,0.016,51
1679515474983308298,-0.004
1679515474991005174,-0.031
1679515474998702050,-0.064
1679515475006398926,-0.112
1679515475014095802,-0.183
1679515475021792678,-0.243
1679515475029489554,-0.245
1679515475037186430,-0.193
1679515475044883306,-0.152
1679515475052580182,-0.131
1679515475060277058,-0.097
1679515475067973934,-0.064
1679515475075670810,-0.047
1679515475083367686,-0.041
1679515475091064562,-0.035
1679515475098761438,-0.039
1679515475106458314,-0.083
1679515475114155190,-0.158
1679515475121852066,-0.21
1679515475129548942,-0.231
1679515475137245818,-0.26
1679515475144942694,-0.28700000000000003
1679515475152639570,-0.28700000000000003
1679515475160336446,-0.302
1679515475168033322,-0.354
1679515475175730198,-0.372
1679515475183427074,-0.329
1679515475191123950,-0.291
1679515475198820826,-0.28700000000000003
1679515475206517702,-0.28300000000000003
1679515475214214578,-0.254
1679515475221911454,-0.218
1679515475229608330,-0.197
1679515475237305206,-0.17500000000000002
1679515475245002082,-0.14300000000000002
1679515475252698958,-0.129
1679515475260395834,-0.131
1679515475268092710,-0.108
1679515475275789586,-0.066
1679515475283486462,-0.037
1679515475291183338,-0.033
1679515475298880214,-0.037
1679515475306577090,-0.02
1679515475314273966,0.004
1679515475321970842,0.012
1679515475329667718,0.022
1679515475337364594,0.045
1679515475345061470,0.052000000000000005
1679515475352758346,0.041
1679515475360455222,0.058
1679515475368152098,0.089
1679515475375848974,0.10400000000000001
1679515475383545850,0.1
1679515475391242726,0.1
1679515475398939602,0.116
1679515475406636478,0.125
1679515475414333354,0.106
1679515475422030230,0.093
1679515475429727106,0.108
1679515475437423982,0.106
1679515475445120858,0.089
1679515475452817734,0.108
1679515475460514610,0.139
1679515475468211486,0.145
1679515475475908362,0.139
1679515475483605238,0.14300000000000002
1679515475491302114,0.156
1679515475498998990,0.158
1679515475506695866,0.11800000000000001
1679515475514392742,0.054
1679515475522089618,0.027
1679515475529786494,0.022
1679515475537483406,0.014
1679515475545180282,0.031
1679515475552877158,0.058
1679515475560574034,0.06
1679515475568270910,0.05
1679515475575967786,0.052000000000000005
1679515475583664662,0.037
1679515475591361538,-0.027
1679515475599058414,-0.079
1679515475606755290,-0.058
1679515475614452166,-0.037
1679515475622149042,-0.064
1679515475629845918,-0.064
1679515475637542794,-0.025
1679515475645239670,0.006
1679515475652936546,0.01
1679515475660633422,-0.01
1679515475668330298,-0.035
1679515475676027174,-0.031
1679515475683724050,-0.02
1679515475691420926,-0.006
1679515475699117802,0.02
1679515475706814678,0.035
1679515475714511554,0.022
1679515475722208430,0.027
1679515475729905306,0.058
1679515475737602182,0.075
1679515475745299058,0.079
1679515475752995934,0.095
1679515475760692810,0.108
1679515475768389686,0.10200000000000001
1679515475776086562,0.106
1679515475783783438,0.131
1679515475791480314,0.152
1679515475799177190,0.14300000000000002
1679515475806874066,0.12
1679515475814570942,0.131
1679515475822267818,0.17
1679515475829964694,0.195
1679515475837661570,0.218
1679515475845358446,0.252
1679515475853055322,0.245
1679515475860752198,0.21
1679515475868449074,0.212
1679515475876145950,0.23900000000000002
1679515475883842826,0.243
1679515475891539702,0.225
1679515475899236578,0.191
1679515475906933454,0.152
1679515475914630330,0.131
1679515475922327206,0.133
1679515475930024082,0.14100000000000001
1679515475937720958,0.15
1679515475945417834,0.133
1679515475953114710,0.10200000000000001
1679515475960811586,0.193
1679515475968508462,0.529
1679515475976205338,1.02
1679515475983902214,1.2750000000000001
1679515475991599090,0.897
1679515475999295966,0.129
1679515476006992842,-0.368
1679515476014689718,-0.366
1679515476022386594,-0.152
1679515476030083470,-0.012
1679515476037780346,0.01
1679515476045477222,0.004,,1245
1679515476053174098,0.033
1679515476060870974,0.068
1679515476068567850,0.081
1679515476076264726,0.081
1679515476083961602,0.091
1679515476091658478,0.108
1679515476099355390,0.12,51
1679515476107052684,0.131
1679515476114749978,0.154
1679515476122447272,0.162
1679515476130144566,0.112
1679515476137841860,0.052000000000000005
1679515476145539154,0.052000000000000005
1679515476153236448,0.039
1679515476160933742,0.0
1679515476168631036,0.0
1679515476176328330,0.004
1679515476184025624,-0.025
1679515476191722918,-0.027
1679515476199420212,0.008
1679515476207117506,0.037
1679515476214814800,0.029
1679515476222512094,0.008
1679515476230209388,0.006
1679515476237906682,0.018000000000000002
1679515476245603976,0.025
1679515476253301270,0.029
1679515476260998564,0.027
1679515476268695858,0.008
1679515476276393152,-0.029
1679515476284090446,-0.077
1679515476291787740,-0.122
1679515476299485034,-0.164
1679515476307182328,-0.218
1679515476314879622,-0.272
1679515476322576916,-0.293
1679515476330274210,-0.28300000000000003
1679515476337971504,-0.28300000000000003
1679515476345668798,-0.28300000000000003
1679515476353366092,-0.264
1679515476361063386,-0.25
1679515476368760680,-0.25
1679515476376457974,-0.23700000000000002
1679515476384155268,-0.20600000000000002
1679515476391852562,-0.191
1679515476399549856,-0.216
1679515476407247150,-0.231
1679515476414944444,-0.20400000000000001
1679515476422641738,-0.17
1679515476430339032,-0.16
1679515476438036326,-0.145
1679515476445733620,-0.114
1679515476453430914,-0.10200000000000001
1679515476461128208,-0.106
1679515476468825502,-0.085
1679515476476522796,-0.047
1679515476484220090,-0.027
1679515476491917384,-0.027
1679515476499614678,-0.029
1679515476507311972,-0.018000000000000002
1679515476515009266,-0.039
1679515476522706560,-0.095
1679515476530403854,-0.10400000000000001
1679515476538101148,-0.07200000000000001
1679515476545798442,-0.079
1679515476553495736,-0.093
1679515476561193030,-0.07200000000000001
1679515476568890324,-0.045
1679515476576587618,-0.037
1679515476584284912,-0.041
1679515476591982206,-0.037
1679515476599679500,-0.018000000000000002
1679515476607376794,0.0
1679515476615074088,0.01
1679515476622771382,0.035
1679515476630468676,0.06
1679515476638165970,0.052000000000000005
1679515476645863264,0.016
1679515476653560558,0.01
1679515476661257890,0.033
1679515476668954418,0.039
1679515476676650946,0.031
1679515476684347474,0.029
1679515476692044002,0.031
1679515476699740530,0.004
1679515476707437058,-0.029
1679515476715133586,-0.016
1679515476722830114,-0.004
1679515476730526642,-0.033
1679515476738223170,-0.037
1679515476745919698,0.006
