ts,red,ir,green
1679515469185462,158450.0,220002.0,9599.0
1679515469195462,158401.0,219991.0,9603.0
1679515469206462,158382.0,219943.0,9571.0
1679515469215462,158275.0,219832.0,9555.0
1679515469225462,158110.0,219716.0,9561.0
1679515469236462,157836.0,219418.0,9525.0
1679515469246461,157529.0,219190.0,9468.0
1679515469255462,157195.0,218899.0,9432.0
1679515469265462,156895.0,218656.0,9383.0
1679515469276461,156650.0,218446.0,9343.0
1679515469286461,156474.0,218328.0,9322.0
1679515469295462,156345.0,218214.0,9323.0
1679515469305462,156323.0,218212.0,9308.0
1679515469316461,156335.0,218211.0,9320.0
1679515469325461,156451.0,218307.0,9326.0
1679515469335461,156524.0,218347.0,9348.0
1679515469345461,156659.0,218471.0,9349.0
1679515469355461,156820.0,218648.0,9382.0
1679515469366461,156965.0,218766.0,9364.0
1679515469375461,157121.0,218900.0,9394.0
1679515469385461,157262.0,219015.0,9439.0
1679515469396461,157376.0,219118.0,9458.0
1679515469406461,157490.0,219238.0,9479.0
1679515469415461,157590.0,219292.0,9493.0
1679515469425461,157738.0,219429.0,9486.0
1679515469436461,157813.0,219453.0,9500.0
1679515469445461,157924.0,219548.0,9531.0
1679515469456461,157996.0,219614.0,9549.0
1679515469465461,158058.0,219682.0,9553.0
1679515469475461,158117.0,219731.0,9564.0
1679515469485461,158161.0,219739.0,9540.0
1679515469495461,158168.0,219765.0,9566.0
1679515469505461,158143.0,219724.0,9553.0
1679515469516461,158104.0,219681.0,9554.0
1679515469525462,158049.0,219699.0,9542.0
1679515469535462,157965.0,219563.0,9528.0
1679515469545462,157867.0,219521.0,9515.0
1679515469555462,157769.0,219480.0,9519.0
1679515469565461,157689.0,219378.0,9511.0
1679515469575461,157629.0,219354.0,9490.0
1679515469585461,157641.0,219308.0,9461.0
1679515469595461,157590.0,219305.0,9449.0
1679515469605461,157607.0,219285.0,9441.0
1679515469616461,157609.0,219280.0,9477.0
1679515469626461,157615.0,219348.0,9487.0
1679515469635461,157638.0,219316.0,9488.0
1679515469645461,157651.0,219331.0,9501.0
1679515469656461,157682.0,219362.0,9499.0
1679515469666461,157717.0,219362.0,9503.0
1679515469675461,157771.0,219389.0,9506.0
1679515469685461,157794.0,219431.0,9510.0
1679515469696462,157844.0,219457.0,9514.0
1679515469706462,157863.0,219502.0,9525.0
1679515469717461,157885.0,219549.0,9540.0
1679515469725461,157937.0,219530.0,9533.0
1679515469736461,157973.0,219626.0,9539.0
1679515469746461,158007.0,219674.0,9540.0
1679515469754461,158021.0,219625.0,9521.0
1679515469765461,158058.0,219661.0,9527.0
1679515469776461,158062.0,219687.0,9547.0
1679515469785461,158072.0,219706.0,9549.0
1679515469795461,158097.0,219720.0,9557.0
1679515469805461,158099.0,219668.0,9552.0
1679515469816461,158115.0,219721.0,9562.0
1679515469825461,158113.0,219737.0,9558.0
1679515469835461,158108.0,219691.0,9556.0
1679515469845461,158106.0,219718.0,9552.0
1679515469856461,158115.0,219728.0,9570.0
1679515469865461,158124.0,219742.0,9574.0
1679515469876462,158113.0,219683.0,9567.0
1679515469885462,158125.0,219665.0,9548.0
1679515469896462,158111.0,219723.0,9563.0
1679515469905462,158100.0,219720.0,9553.0
1679515469916462,158093.0,219710.0,9559.0
1679515469925462,158113.0,219670.0,9562.0
1679515469935462,158121.0,219737.0,9533.0
1679515469945462,158136.0,219742.0,9553.0
1679515469956462,158139.0,219734.0,9564.0
1679515469965462,158136.0,219745.0,9554.0
1679515469975462,158137.0,219754.0,9562.0
1679515469985462,158160.0,219707.0,9566.0
1679515469996461,158158.0,219749.0,9568.0
1679515470005462,158189.0,219733.0,9564.0
1679515470015462,158188.0,219746.0,9572.0
1679515470025462,158199.0,219757.0,9563.0
1679515470036461,158206.0,219821.0,9569.0
1679515470044461,158168.0,219829.0,9577.0
1679515470055462,158184.0,219825.0,9577.0
1679515470065461,158224.0,219828.0,9578.0
1679515470076461,158238.0,219859.0,9572.0
1679515470085461,158247.0,219818.0,9579.0
1679515470095461,158271.0,219867.0,9581.0
1679515470105461,158270.0,219871.0,9567.0
1679515470116461,158271.0,219850.0,9579.0
1679515470125461,158269.0,219841.0,9577.0
1679515470135461,158299.0,219897.0,9586.0
1679515470145461,158303.0,219889.0,9575.0
1679515470156461,158316.0,219915.0,9584.0
1679515470165461,158285.0,219907.0,9590.0
1679515470175461,158307.0,219909.0,9589.0
1679515470185461,158294.0,219908.0,9594.0
1679515470195461,158293.0,219898.0,9597.0
1679515470205461,158282.0,219894.0,9593.0
1679515470215461,158308.0,219895.0,9573.0
1679515470225461,158347.0,219905.0,9594.0
1679515470235462,158326.0,219915.0,9573.0
1679515470245462,158348.0,219904.0,9558.0
1679515470255462,158296.0,219915.0,9597.0
1679515470265462,158320.0,219900.0,9585.0
1679515470275462,158321.0,219910.0,9596.0
1679515470285462,158297.0,219933.0,9594.0
1679515470295462,158338.0,219930.0,9580.0
1679515470305462,158354.0,219921.0,9584.0
1679515470315461,158331.0,219936.0,9596.0
1679515470325461,158329.0,219925.0,9599.0
1679515470335461,158361.0,219925.0,9580.0
1679515470345461,158386.0,219919.0,9606.0
1679515470355461,158389.0,219935.0,9597.0
1679515470366461,158400.0,219946.0,9601.0
1679515470376461,158407.0,219954.0,9601.0
1679515470384461,158393.0,219926.0,9604.0
1679515470395461,158410.0,219954.0,9581.0
1679515470406461,158409.0,219944.0,9600.0
1679515470416462,158376.0,219915.0,9588.0
1679515470424461,158290.0,219842.0,9583.0
1679515470435461,158165.0,219719.0,9535.0
1679515470445461,157928.0,219503.0,9508.0
1679515470455461,157659.0,219267.0,9472.0
1679515470464461,157347.0,219041.0,9443.0
1679515470475461,157055.0,218766.0,9353.0
1679515470485461,156784.0,218548.0,9354.0
1679515470495461,156568.0,218376.0,9328.0
1679515470505461,156436.0,218257.0,9315.0
1679515470515461,156362.0,218191.0,9310.0
1679515470525461,156356.0,218204.0,9317.0
1679515470535461,156448.0,218307.0,9326.0
1679515470545461,156513.0,218335.0,9334.0
1679515470555461,156637.0,218447.0,9346.0
1679515470565461,156777.0,218583.0,9372.0
1679515470575461,156932.0,218735.0,9388.0
1679515470585461,157091.0,218880.0,9417.0
1679515470595461,157222.0,219001.0,9422.0
1679515470605461,157349.0,219090.0,9444.0
1679515470615461,157452.0,219128.0,9460.0
1679515470626461,157583.0,219242.0,9479.0
1679515470634461,157741.0,219376.0,9498.0
1679515470645461,157775.0,219454.0,9511.0
1679515470655461,157890.0,219457.0,9524.0
1679515470666461,157974.0,219586.0,9538.0
1679515470674461,158060.0,219660.0,9558.0
1679515470685461,158117.0,219695.0,9561.0
1679515470695461,158162.0,219734.0,9573.0
1679515470706461,158174.0,219766.0,9570.0
1679515470714461,158171.0,219733.0,9559.0
1679515470725461,158137.0,219710.0,9552.0
1679515470735461,158073.0,219667.0,9544.0
1679515470745461,158009.0,219626.0,9510.0
1679515470754461,157938.0,219531.0,9518.0
1679515470765461,157864.0,219461.0,9496.0
1679515470776461,157791.0,219409.0,9500.0
1679515470785462,157722.0,219371.0,9496.0
1679515470794462,157637.0,219319.0,9471.0
1679515470805462,157649.0,219293.0,9455.0
1679515470815461,157640.0,219311.0,9454.0
1679515470826461,157662.0,219280.0,9458.0
1679515470835461,157594.0,219303.0,9488.0
1679515470845461,157686.0,219310.0,9486.0
1679515470855461,157701.0,219340.0,9472.0
1679515470865461,157751.0,219401.0,9447.0
1679515470875461,157761.0,219427.0,9484.0
1679515470885461,157806.0,219422.0,9469.0
1679515470894461,157837.0,219444.0,9502.0
1679515470905461,157880.0,219502.0,9508.0
1679515470916461,157912.0,219520.0,9534.0
1679515470925461,157949.0,219573.0,9527.0
1679515470935461,157985.0,219589.0,9543.0
1679515470945461,158003.0,219638.0,9535.0
1679515470956462,158056.0,219625.0,9560.0
1679515470964461,158079.0,219615.0,9543.0
1679515470975461,158125.0,219716.0,9566.0
1679515470985461,158157.0,219772.0,9568.0
1679515470996461,158201.0,219765.0,9576.0
1679515471005461,158232.0,219801.0,9576.0
1679515471014461,158264.0,219825.0,9566.0
1679515471025461,158301.0,219831.0,9568.0
1679515471036461,158323.0,219873.0,9587.0
1679515471044461,158331.0,219835.0,9573.0
1679515471055461,158327.0,219879.0,9588.0
1679515471065461,158353.0,219907.0,9583.0
1679515471075461,158367.0,219904.0,9592.0
1679515471085461,158381.0,219889.0,9593.0
1679515471095461,158382.0,219899.0,9584.0
1679515471105461,158372.0,219921.0,9584.0
1679515471116461,158394.0,219881.0,9595.0
1679515471125461,158386.0,219916.0,9593.0
1679515471135461,158392.0,219954.0,9600.0
1679515471145461,158391.0,219884.0,9594.0
1679515471155461,158404.0,219956.0,9605.0
1679515471165461,158418.0,219974.0,9603.0
1679515471175461,158419.0,219937.0,9606.0
1679515471185461,158421.0,219909.0,9606.0
1679515471195461,158427.0,219978.0,9606.0
1679515471205461,158411.0,219959.0,9605.0
1679515471215461,158417.0,219967.0,9611.0
1679515471225461,158419.0,219986.0,9603.0
1679515471235461,158419.0,219937.0,9608.0
1679515471245461,158431.0,220006.0,9600.0
1679515471255461,158441.0,220009.0,9608.0
1679515471264461,158424.0,220016.0,9594.0
1679515471275461,158427.0,220015.0,9607.0
1679515471285461,158402.0,220007.0,9613.0
1679515471295461,158423.0,220004.0,9613.0
1679515471304461,158426.0,220001.0,9615.0
1679515471315461,158438.0,220037.0,9616.0
1679515471325461,158429.0,220047.0,9617.0
1679515471335461,158474.0,220048.0,9622.0
1679515471344462,158494.0,220051.0,9620.0
1679515471355461,158494.0,220069.0,9612.0
1679515471365461,158482.0,220061.0,9614.0
1679515471375461,158505.0,220063.0,9614.0
1679515471384462,158505.0,220076.0,9619.0
1679515471395461,158506.0,220091.0,9621.0
1679515471405461,158478.0,220063.0,9626.0
1679515471415461,158506.0,220054.0,9625.0
1679515471424461,158532.0,220055.0,9625.0
1679515471435461,158521.0,220084.0,9623.0
1679515471445461,158544.0,220080.0,9590.0
1679515471455461,158549.0,220059.0,9582.0
1679515471464461,158521.0,220081.0,9600.0
1679515471475461,158536.0,220042.0,9578.0
1679515471484461,158532.0,220041.0,9603.0
1679515471495462,158540.0,220047.0,9601.0
1679515471504462,158526.0,220048.0,9615.0
1679515471515462,158503.0,220039.0,9591.0
1679515471524462,158540.0,220045.0,9595.0
1679515471535462,158541.0,220039.0,9597.0
1679515471545462,158546.0,220020.0,9621.0
1679515471554462,158542.0,219996.0,9622.0
1679515471565461,158556.0,220008.0,9622.0
1679515471575461,158556.0,220031.0,9623.0
1679515471585461,158556.0,220083.0,9618.0
1679515471594462,158549.0,220062.0,9628.0
1679515471605461,158556.0,220080.0,9630.0
1679515471615461,158553.0,220076.0,9617.0
1679515471625461,158511.0,220029.0,9619.0
1679515471634462,158358.0,219906.0,9601.0
1679515471645461,158217.0,219708.0,9574.0
1679515471655461,157938.0,219517.0,9529.0
1679515471665461,157650.0,219267.0,9456.0
1679515471674461,157315.0,219021.0,9426.0
1679515471685461,157021.0,218728.0,9370.0
1679515471694461,156714.0,218510.0,9371.0
1679515471705461,156567.0,218376.0,9339.0
1679515471714461,156430.0,218303.0,9305.0
1679515471725461,156403.0,218241.0,9290.0
1679515471734461,156427.0,218284.0,9320.0
1679515471745461,156492.0,218300.0,9319.0
1679515471754461,156565.0,218422.0,9330.0
1679515471765461,156725.0,218518.0,9319.0
1679515471774461,156869.0,218627.0,9367.0
1679515471785461,157021.0,218778.0,9394.0
1679515471794461,157158.0,218917.0,9399.0
1679515471804461,157297.0,218991.0,9418.0
1679515471814461,157417.0,219087.0,9443.0
1679515471825461,157541.0,219194.0,9463.0
1679515471835461,157645.0,219277.0,9487.0
1679515471844461,157724.0,219288.0,9499.0
1679515471855461,157830.0,219423.0,9524.0
1679515471865461,157930.0,219528.0,9525.0
1679515471875461,158020.0,219597.0,9546.0
1679515471884462,158132.0,219701.0,9546.0
1679515471894461,158188.0,219729.0,9565.0
1679515471905461,158226.0,219757.0,9554.0
1679515471915461,158213.0,219792.0,9583.0
1679515471924461,158206.0,219783.0,9573.0
1679515471934461,158159.0,219757.0,9571.0
1679515471945461,158124.0,219700.0,9543.0
1679515471955461,158079.0,219634.0,9555.0
1679515471964461,158015.0,219556.0,9540.0
1679515471975461,157918.0,219507.0,9530.0
1679515471985461,157846.0,219427.0,9522.0
1679515471995461,157789.0,219345.0,9532.0
1679515472004461,157762.0,219323.0,9503.0
1679515472015461,157714.0,219322.0,9504.0
1679515472025461,157683.0,219298.0,9498.0
1679515472035462,157695.0,219289.0,9501.0
1679515472044462,157699.0,219342.0,9497.0
1679515472055462,157735.0,219361.0,9508.0
1679515472064462,157758.0,219353.0,9513.0
1679515472075461,157795.0,219351.0,9508.0
1679515472085461,157832.0,219371.0,9512.0
1679515472095461,157872.0,219456.0,9527.0
1679515472104462,157919.0,219468.0,9536.0
1679515472115461,157958.0,219481.0,9535.0
1679515472125461,157997.0,219544.0,9534.0
1679515472136461,158028.0,219586.0,9545.0
1679515472144461,158070.0,219651.0,9555.0
1679515472155461,158109.0,219685.0,9553.0
1679515472165461,158102.0,219706.0,9560.0
1679515472174461,158112.0,219729.0,9571.0
1679515472184461,158185.0,219760.0,9564.0
1679515472195461,158197.0,219769.0,9572.0
1679515472205461,158182.0,219771.0,9571.0
1679515472214461,158200.0,219770.0,9575.0
1679515472224461,158221.0,219781.0,9577.0
1679515472237461,158251.0,219802.0,9571.0
1679515472245461,158251.0,219777.0,9585.0
1679515472254461,158214.0,219804.0,9583.0
1679515472264461,158216.0,219821.0,9586.0
1679515472275461,158228.0,219818.0,9575.0
1679515472285461,158255.0,219806.0,9565.0
1679515472294461,158254.0,219820.0,9551.0
1679515472304461,158221.0,219803.0,9585.0
1679515472315461,158241.0,219795.0,9589.0
1679515472324461,158235.0,219798.0,9593.0
1679515472336461,158229.0,219798.0,9589.0
1679515472345461,158248.0,219786.0,9568.0
1679515472354462,158284.0,219806.0,9579.0
1679515472365461,158252.0,219812.0,9580.0
1679515472375461,158276.0,219798.0,9576.0
1679515472385461,158292.0,219806.0,9595.0
1679515472394461,158298.0,219767.0,9590.0
1679515472405461,158305.0,219764.0,9598.0
1679515472415461,158336.0,219832.0,9589.0
1679515472425461,158330.0,219839.0,9596.0
1679515472434461,158341.0,219864.0,9594.0
1679515472445461,158341.0,219850.0,9603.0
1679515472455461,158359.0,219853.0,9598.0
1679515472465461,158366.0,219831.0,9598.0
1679515472474461,158383.0,219810.0,9609.0
1679515472485461,158386.0,219891.0,9609.0
1679515472495461,158403.0,219871.0,9605.0
1679515472504461,158406.0,219878.0,9615.0
1679515472514461,158421.0,219931.0,9609.0
1679515472525461,158435.0,219913.0,9606.0
1679515472535461,158442.0,219878.0,9609.0
1679515472544461,158453.0,219921.0,9599.0
1679515472554461,158428.0,219962.0,9620.0
1679515472565461,158435.0,219974.0,9624.0
1679515472575461,158464.0,219986.0,9599.0
1679515472585461,158465.0,219968.0,9606.0
1679515472594462,158477.0,219924.0,9624.0
1679515472605461,158489.0,219949.0,9618.0
1679515472615461,158493.0,219910.0,9605.0
1679515472625461,158506.0,219930.0,9608.0
1679515472634462,158497.0,219959.0,9616.0
1679515472645461,158492.0,219958.0,9618.0
1679515472654461,158494.0,219957.0,9611.0
1679515472665461,158482.0,219971.0,9608.0
1679515472674461,158496.0,219969.0,9613.0
1679515472685461,158508.0,219989.0,9612.0
1679515472694461,158505.0,219978.0,9619.0
1679515472705461,158508.0,219991.0,9618.0
1679515472714461,158481.0,219974.0,9633.0
1679515472724461,158509.0,219986.0,9610.0
1679515472734461,158489.0,219965.0,9624.0
1679515472745461,158480.0,219967.0,9622.0
1679515472754462,158523.0,219940.0,9619.0
1679515472765462,158522.0,219992.0,9623.0
1679515472774462,158508.0,219894.0,9619.0
1679515472785462,158426.0,219870.0,9607.0
1679515472794462,158422.0,219879.0,9601.0
1679515472805462,158509.0,219946.0,9614.0
1679515472814462,158539.0,219934.0,9622.0
1679515472825461,158563.0,219947.0,9628.0
1679515472835461,158586.0,220009.0,9628.0
1679515472844462,158595.0,220036.0,9621.0
1679515472854462,158605.0,220058.0,9633.0
1679515472865461,158577.0,220023.0,9632.0
1679515472875461,158482.0,219909.0,9611.0
1679515472884462,158291.0,219749.0,9575.0
1679515472894461,158049.0,219558.0,9548.0
1679515472905461,157779.0,219334.0,9518.0
1679515472914461,157451.0,219066.0,9465.0
1679515472924461,157173.0,218818.0,9427.0
1679515472934461,156905.0,218582.0,9391.0
1679515472945461,156681.0,218402.0,9346.0
1679515472955461,156525.0,218271.0,9327.0
1679515472964461,156411.0,218171.0,9313.0
1679515472974461,156405.0,218153.0,9323.0
1679515472985461,156468.0,218261.0,9329.0
1679515472995461,156559.0,218302.0,9338.0
1679515473004461,156684.0,218414.0,9346.0
1679515473014461,156854.0,218530.0,9378.0
1679515473025461,157004.0,218625.0,9396.0
1679515473035461,157113.0,218683.0,9409.0
1679515473044461,157243.0,218845.0,9435.0
1679515473054461,157294.0,218988.0,9438.0
1679515473065461,157450.0,219074.0,9477.0
1679515473074461,157526.0,219178.0,9484.0
1679515473085461,157649.0,219292.0,9498.0
1679515473094461,157728.0,219306.0,9507.0
1679515473104461,157837.0,219365.0,9500.0
1679515473114462,157887.0,219444.0,9502.0
1679515473125461,158006.0,219511.0,9497.0
1679515473134462,158055.0,219604.0,9554.0
1679515473144461,158168.0,219672.0,9568.0
1679515473154461,158301.0,219730.0,9553.0
1679515473165461,158319.0,219733.0,9565.0
1679515473174461,158305.0,219684.0,9575.0
1679515473185461,158249.0,219659.0,9560.0
1679515473194461,158152.0,219539.0,9536.0
1679515473205461,158046.0,219476.0,9541.0
1679515473214461,157952.0,219421.0,9530.0
1679515473225461,157870.0,219369.0,9527.0
1679515473234461,157817.0,219270.0,9511.0
1679515473245461,157761.0,219243.0,9496.0
1679515473254461,157754.0,219234.0,9483.0
1679515473264461,157646.0,219192.0,9475.0
1679515473274461,157573.0,219139.0,9475.0
1679515473285461,157496.0,219106.0,9464.0
1679515473294462,157466.0,219068.0,9451.0
1679515473304462,157467.0,219030.0,9454.0
1679515473314462,157482.0,219059.0,9434.0
1679515473325461,157493.0,219059.0,9432.0
1679515473335461,157497.0,219085.0,9436.0
1679515473345461,157548.0,219146.0,9447.0
1679515473354462,157670.0,219228.0,9461.0
1679515473365461,157758.0,219261.0,9480.0
1679515473375461,157871.0,219355.0,9498.0
1679515473384462,157973.0,219467.0,9507.0
1679515473394461,158037.0,219539.0,9528.0
1679515473405461,158126.0,219622.0,9544.0
1679515473415461,158172.0,219666.0,9552.0
1679515473424461,158197.0,219684.0,9548.0
1679515473434461,158203.0,219680.0,9561.0
1679515473446462,158194.0,219655.0,9555.0
1679515473454461,158189.0,219647.0,9549.0
1679515473464461,158171.0,219730.0,9547.0
1679515473474462,158160.0,219748.0,9542.0
1679515473485462,158147.0,219745.0,9554.0
1679515473494462,158182.0,219734.0,9554.0
1679515473504462,158243.0,219808.0,9568.0
1679515473514462,158299.0,219871.0,9575.0
1679515473525462,158342.0,219903.0,9571.0
1679515473534462,158407.0,219939.0,9589.0
1679515473545462,158421.0,219958.0,9592.0
1679515473554462,158448.0,219960.0,9593.0
1679515473565461,158451.0,219956.0,9605.0
1679515473574462,158457.0,219929.0,9596.0
1679515473585461,158440.0,219955.0,9589.0
1679515473594462,158425.0,219983.0,9587.0
1679515473605461,158416.0,219967.0,9599.0
1679515473614462,158435.0,219985.0,9608.0
1679515473625461,158437.0,219992.0,9597.0
1679515473634462,158471.0,219958.0,9597.0
1679515473646462,158459.0,219968.0,9606.0
1679515473654461,158478.0,220006.0,9606.0
1679515473665461,158460.0,220015.0,9597.0
1679515473674461,158485.0,220001.0,9603.0
1679515473685461,158501.0,220008.0,9601.0
1679515473694461,158521.0,220028.0,9604.0
1679515473704461,158540.0,220031.0,9613.0
1679515473714461,158533.0,220053.0,9590.0
1679515473724461,158565.0,220061.0,9579.0
1679515473734461,158586.0,220094.0,9589.0
1679515473744461,158591.0,220074.0,9593.0
1679515473754461,158586.0,220059.0,9577.0
1679515473763461,158560.0,220022.0,9617.0
1679515473774461,158568.0,220049.0,9611.0
1679515473784461,158577.0,220050.0,9618.0
1679515473794461,158575.0,220070.0,9618.0
1679515473803461,158585.0,220088.0,9588.0
1679515473814461,158605.0,220108.0,9583.0
1679515473824461,158623.0,220083.0,9604.0
1679515473835461,158577.0,220094.0,9628.0
1679515473844462,158594.0,220078.0,9622.0
1679515473854462,158633.0,220118.0,9625.0
1679515473864462,158592.0,220078.0,9629.0
1679515473875461,158624.0,220086.0,9613.0
1679515473884462,158654.0,220110.0,9604.0
1679515473894461,158652.0,220103.0,9635.0
1679515473904461,158662.0,220117.0,9623.0
1679515473915461,158640.0,220085.0,9612.0
1679515473923461,158638.0,220080.0,9617.0
1679515473934461,158644.0,220117.0,9617.0
1679515473944461,158609.0,220075.0,9627.0
1679515473955461,158637.0,220085.0,9621.0
1679515473963461,158637.0,220072.0,9593.0
1679515473974461,158654.0,220073.0,9593.0
1679515473984461,158664.0,220081.0,9603.0
1679515473994461,158662.0,220043.0,9578.0
1679515474003461,158671.0,220050.0,9609.0
1679515474014462,158671.0,220054.0,9594.0
1679515474024462,158671.0,220053.0,9617.0
1679515474035462,158658.0,220113.0,9638.0
1679515474043461,158670.0,220103.0,9618.0
1679515474054461,158682.0,220102.0,9636.0
1679515474064461,158732.0,220090.0,9604.0
1679515474074461,158737.0,220120.0,9594.0
1679515474084461,158742.0,220080.0,9616.0
1679515474094461,158743.0,220104.0,9621.0
1679515474104461,158741.0,220149.0,9635.0
1679515474114461,158730.0,220115.0,9629.0
1679515474124461,158691.0,220085.0,9632.0
1679515474134461,158627.0,220034.0,9634.0
1679515474144461,158488.0,219931.0,9601.0
1679515474154461,158299.0,219754.0,9578.0
1679515474164461,158093.0,219521.0,9513.0
1679515474174461,157792.0,219276.0,9485.0
1679515474183461,157473.0,219047.0,9448.0
1679515474194461,157173.0,218776.0,9378.0
1679515474204461,156944.0,218573.0,9358.0
1679515474214461,156723.0,218436.0,9353.0
1679515474224461,156660.0,218387.0,9331.0
1679515474234461,156621.0,218334.0,9328.0
1679515474244461,156643.0,218360.0,9339.0
1679515474254461,156725.0,218416.0,9339.0
1679515474263461,156789.0,218526.0,9372.0
1679515474274461,156934.0,218636.0,9385.0
1679515474284461,157078.0,218747.0,9399.0
1679515474294461,157254.0,218868.0,9410.0
1679515474303461,157397.0,218978.0,9425.0
1679515474314461,157478.0,219092.0,9471.0
1679515474324461,157611.0,219183.0,9460.0
1679515474335461,157745.0,219286.0,9455.0
1679515474343461,157840.0,219388.0,9508.0
1679515474354461,157932.0,219472.0,9530.0
1679515474364461,158068.0,219530.0,9511.0
1679515474375461,158115.0,219598.0,9553.0
1679515474383461,158229.0,219693.0,9564.0
1679515474394461,158342.0,219785.0,9570.0
1679515474404461,158395.0,219813.0,9572.0
1679515474415461,158429.0,219826.0,9578.0
1679515474423461,158419.0,219831.0,9586.0
1679515474434461,158406.0,219770.0,9573.0
1679515474444461,158365.0,219751.0,9570.0
1679515474455461,158313.0,219702.0,9565.0
1679515474463461,158281.0,219646.0,9540.0
1679515474474461,158162.0,219592.0,9536.0
1679515474484461,158081.0,219535.0,9524.0
1679515474494461,158023.0,219447.0,9524.0
1679515474503461,157956.0,219415.0,9509.0
1679515474514461,157923.0,219380.0,9494.0
1679515474524461,157900.0,219375.0,9490.0
1679515474534461,157883.0,219353.0,9500.0
1679515474543461,157857.0,219353.0,9506.0
1679515474554462,157880.0,219365.0,9503.0
1679515474564462,157895.0,219423.0,9497.0
1679515474574462,157949.0,219404.0,9518.0
1679515474584462,157977.0,219451.0,9523.0
1679515474594462,157984.0,219476.0,9523.0
1679515474604462,158052.0,219485.0,9525.0
1679515474614462,158121.0,219542.0,9520.0
1679515474624462,158159.0,219572.0,9529.0
1679515474634462,158176.0,219592.0,9544.0
1679515474643462,158205.0,219622.0,9542.0
1679515474654461,158223.0,219639.0,9571.0
1679515474664461,158230.0,219680.0,9539.0
1679515474674461,158253.0,219690.0,9565.0
1679515474683462,158285.0,219677.0,9567.0
1679515474694461,158323.0,219699.0,9566.0
1679515474704461,158364.0,219727.0,9558.0
1679515474714461,158366.0,219728.0,9561.0
1679515474723461,158371.0,219732.0,9564.0
1679515474734462,158366.0,219701.0,9559.0
1679515474744462,158373.0,219722.0,9563.0
1679515474754462,158389.0,219693.0,9572.0
1679515474764462,158398.0,219762.0,9562.0
1679515474774462,158387.0,219674.0,9564.0
1679515474784462,158391.0,219696.0,9560.0
1679515474794462,158386.0,219697.0,9570.0
1679515474804462,158382.0,219703.0,9567.0
1679515474814462,158365.0,219703.0,9563.0
1679515474824462,158363.0,219685.0,9565.0
1679515474835461,158353.0,219676.0,9566.0
1679515474843461,158357.0,219658.0,9562.0
1679515474855461,158362.0,219694.0,9566.0
1679515474864462,158374.0,219679.0,9551.0
1679515474874462,158378.0,219688.0,9567.0
1679515474883462,158381.0,219704.0,9558.0
1679515474894461,158390.0,219702.0,9548.0
1679515474904461,158402.0,219710.0,9564.0
1679515474915462,158416.0,219733.0,9557.0
1679515474923462,158434.0,219743.0,9566.0
1679515474934461,158441.0,219717.0,9572.0
1679515474944461,158445.0,219705.0,9557.0
1679515474956462,158450.0,219702.0,9569.0
1679515474963462,158469.0,219707.0,9588.0
1679515474974461,158474.0,219704.0,9568.0
1679515474984461,158473.0,219771.0,9582.0
1679515474994461,158498.0,219758.0,9586.0
1679515475003461,158500.0,219766.0,9577.0
1679515475014461,158541.0,219797.0,9583.0
1679515475024461,158534.0,219795.0,9571.0
1679515475034461,158541.0,219802.0,9588.0
1679515475043461,158553.0,219817.0,9587.0
1679515475054461,158563.0,219830.0,9587.0
1679515475063461,158559.0,219824.0,9583.0
1679515475074461,158540.0,219838.0,9598.0
1679515475084461,158557.0,219847.0,9595.0
1679515475094462,158599.0,219852.0,9586.0
1679515475104462,158609.0,219848.0,9582.0
1679515475114462,158605.0,219794.0,9586.0
1679515475124462,158602.0,219773.0,9584.0
1679515475134462,158609.0,219800.0,9590.0
1679515475144461,158626.0,219826.0,9595.0
1679515475154461,158653.0,219853.0,9589.0
1679515475164461,158654.0,219846.0,9590.0
1679515475174461,158636.0,219838.0,9591.0
1679515475183462,158636.0,219840.0,9585.0
1679515475194461,158646.0,219830.0,9588.0
1679515475204461,158634.0,219859.0,9601.0
1679515475214461,158641.0,219851.0,9587.0
1679515475223461,158632.0,219869.0,9585.0
1679515475234461,158654.0,219900.0,9605.0
1679515475244461,158673.0,219817.0,9597.0
1679515475254461,158657.0,219805.0,9600.0
1679515475263461,158661.0,219831.0,9589.0
1679515475274462,158687.0,219894.0,9594.0
1679515475284462,158687.0,219875.0,9600.0
1679515475294462,158689.0,219839.0,9595.0
1679515475303462,158717.0,219829.0,9601.0
1679515475314462,158731.0,219849.0,9600.0
1679515475324462,158710.0,219829.0,9590.0
1679515475335461,158735.0,219879.0,9614.0
1679515475343461,158732.0,219899.0,9608.0
1679515475354461,158728.0,219856.0,9611.0
1679515475364461,158691.0,219845.0,9590.0
1679515475374461,158586.0,219757.0,9585.0
1679515475383461,158414.0,219620.0,9560.0
1679515475394461,158203.0,219366.0,9529.0
1679515475404461,157945.0,219159.0,9483.0
1679515475414461,157638.0,218948.0,9436.0
1679515475423461,157381.0,218724.0,9404.0
1679515475434461,157139.0,218502.0,9374.0
1679515475444461,156965.0,218379.0,9345.0
1679515475454461,156853.0,218269.0,9302.0
1679515475463462,156818.0,218255.0,9318.0
1679515475473461,156832.0,218264.0,9311.0
1679515475484461,156915.0,218339.0,9329.0
1679515475494461,157006.0,218436.0,9357.0
1679515475503461,157138.0,218541.0,9383.0
1679515475513461,157246.0,218668.0,9400.0
1679515475524461,157390.0,218790.0,9411.0
1679515475534461,157542.0,218895.0,9427.0
1679515475543461,157689.0,219014.0,9446.0
1679515475553461,157806.0,219124.0,9454.0
1679515475564461,157944.0,219197.0,9455.0
1679515475573461,158060.0,219275.0,9489.0
1679515475584461,158163.0,219371.0,9512.0
1679515475594461,158286.0,219459.0,9533.0
1679515475603461,158359.0,219539.0,9541.0
1679515475614461,158453.0,219597.0,9558.0
1679515475624461,158536.0,219649.0,9568.0
1679515475634462,158567.0,219685.0,9568.0
1679515475643462,158590.0,219697.0,9579.0
1679515475653462,158604.0,219697.0,9566.0
1679515475664461,158512.0,219691.0,9567.0
1679515475674461,158521.0,219614.0,9546.0
1679515475684461,158450.0,219578.0,9543.0
1679515475693462,158303.0,219495.0,9535.0
1679515475704461,158269.0,219464.0,9514.0
1679515475713462,158184.0,219371.0,9491.0
1679515475723461,158112.0,219333.0,9500.0
1679515475733461,158067.0,219285.0,9497.0
1679515475744461,158056.0,219253.0,9478.0
1679515475753461,158008.0,219253.0,9500.0
1679515475763461,158000.0,219259.0,9496.0
1679515475773461,158064.0,219265.0,9458.0
1679515475784461,158091.0,219274.0,9496.0
1679515475794461,158106.0,219278.0,9496.0
1679515475803461,158135.0,219317.0,9497.0
1679515475814462,158185.0,219373.0,9507.0
1679515475824462,158221.0,219385.0,9513.0
1679515475834462,158258.0,219420.0,9503.0
1679515475843462,158263.0,219472.0,9532.0
1679515475853462,158310.0,219476.0,9521.0
1679515475864462,158379.0,219517.0,9504.0
1679515475873462,158430.0,219588.0,9537.0
1679515475883462,158459.0,219562.0,9529.0
1679515475893462,158491.0,219589.0,9542.0
1679515475904461,158520.0,219634.0,9548.0
1679515475914461,158547.0,219632.0,9558.0
1679515475923462,158569.0,219674.0,9562.0
1679515475934461,158592.0,219674.0,9547.0
1679515475944461,158606.0,219691.0,9562.0
1679515475953462,158622.0,219730.0,9568.0
1679515475963462,158624.0,219725.0,9532.0
1679515475974461,158633.0,219740.0,9548.0
1679515475984461,158635.0,219706.0,9564.0
1679515475993461,158654.0,219745.0,9548.0
1679515476003461,158668.0,219767.0,9568.0
1679515476013461,158638.0,219732.0,9550.0
1679515476024461,158615.0,219758.0,9577.0
1679515476033461,158603.0,219768.0,9573.0
1679515476043461,158640.0,219738.0,9578.0
1679515476053461,158656.0,219766.0,9566.0
1679515476064461,158652.0,219777.0,9569.0
1679515476073461,158637.0,219773.0,9564.0
1679515476084461,158677.0,219796.0,9574.0
1679515476093461,158687.0,219788.0,9581.0
1679515476104461,158686.0,219797.0,9572.0
1679515476113461,158703.0,219770.0,9582.0
1679515476124461,158711.0,219751.0,9577.0
1679515476133461,158727.0,219782.0,9583.0
1679515476144461,158729.0,219836.0,9582.0
1679515476153461,158767.0,219828.0,9580.0
1679515476164461,158758.0,219856.0,9586.0
1679515476173462,158776.0,219868.0,9583.0
1679515476184461,158765.0,219857.0,9591.0
1679515476193462,158813.0,219869.0,9594.0
1679515476204461,158820.0,219844.0,9604.0
1679515476213462,158822.0,219866.0,9587.0
1679515476223461,158843.0,219921.0,9590.0
1679515476234461,158824.0,219952.0,9597.0
1679515476243461,158816.0,219915.0,9603.0
1679515476253461,158836.0,219921.0,9606.0
1679515476265462,158861.0,219933.0,9589.0
1679515476273461,158901.0,219943.0,9618.0
1679515476284461,158918.0,219939.0,9613.0
1679515476293461,158925.0,219959.0,9605.0
1679515476303461,158929.0,219951.0,9606.0
1679515476313461,158946.0,219922.0,9608.0
1679515476324461,158948.0,219926.0,9614.0
1679515476334461,158961.0,219931.0,9596.0
1679515476343461,158965.0,219987.0,9605.0
1679515476353462,158973.0,219940.0,9598.0
1679515476365462,158964.0,219949.0,9613.0
1679515476374462,158985.0,219991.0,9598.0
1679515476383462,158968.0,219977.0,9609.0
1679515476393462,158997.0,219953.0,9611.0
1679515476404462,158987.0,219933.0,9609.0
1679515476414462,159005.0,219990.0,9613.0
1679515476423462,159006.0,219984.0,9616.0
1679515476433462,158998.0,219981.0,9615.0
1679515476444462,159006.0,219988.0,9621.0
1679515476454462,159006.0,219951.0,9618.0
1679515476463462,159034.0,219975.0,9610.0
1679515476473462,159039.0,219964.0,9617.0
1679515476484462,159021.0,220061.0,9614.0
1679515476493462,159030.0,220017.0,9617.0
1679515476503462,159038.0,220033.0,9616.0
1679515476513462,159010.0,220020.0,9625.0
1679515476524462,159004.0,219987.0,9622.0
1679515476533461,158965.0,219943.0,9598.0
1679515476543461,158862.0,219854.0,9577.0
1679515476553461,158665.0,219605.0,9551.0
1679515476564461,158434.0,219434.0,9531.0
1679515476573461,158129.0,219180.0,9474.0
1679515476584461,157812.0,218931.0,9437.0
1679515476593461,157513.0,218598.0,9397.0
1679515476604461,157244.0,218403.0,9354.0
1679515476613461,157046.0,218259.0,9327.0
1679515476624461,156943.0,218186.0,9321.0
1679515476633461,156903.0,218098.0,9315.0
1679515476644461,156916.0,218154.0,9311.0
1679515476653461,156988.0,218216.0,9324.0
1679515476664461,157098.0,218311.0,9339.0
1679515476673461,157199.0,218382.0,9358.0
1679515476683461,157344.0,218557.0,9369.0
1679515476693461,157487.0,218687.0,9395.0
1679515476704461,157634.0,218810.0,9404.0
1679515476713462,157759.0,218907.0,9427.0
1679515476723461,157882.0,219012.0,9443.0
1679515476733461,158007.0,219055.0,9466.0
1679515476744461,158094.0,219178.0,9477.0
1679515476753461,158198.0,219243.0,9490.0
1679515476763461,158293.0,219352.0,9504.0
1679515476773461,158377.0,219352.0,9506.0
1679515476784461,158470.0,219475.0,9518.0
1679515476793461,158519.0,219554.0,9535.0
1679515476803461,158622.0,219582.0,9531.0
1679515476813461,158683.0,219644.0,9555.0
1679515476824461,158703.0,219664.0,9548.0
1679515476833461,158715.0,219650.0,9541.0
1679515476843461,158699.0,219640.0,9550.0
1679515476853461,158627.0,219593.0,9551.0
1679515476864461,158581.0,219525.0,9532.0
1679515476873461,158494.0,219415.0,9529.0
1679515476883461,158401.0,219414.0,9523.0
1679515476893462,158378.0,219366.0,9500.0
1679515476904461,158303.0,219339.0,9509.0
1679515476913462,158278.0,219251.0,9493.0
1679515476923462,158254.0,219187.0,9494.0
1679515476933462,158257.0,219164.0,9487.0
1679515476943462,158222.0,219190.0,9486.0
1679515476954461,158263.0,219225.0,9475.0
1679515476963462,158282.0,219263.0,9490.0
1679515476973461,158324.0,219304.0,9494.0
1679515476984461,158355.0,219276.0,9496.0
1679515476993461,158373.0,219297.0,9493.0
1679515477003461,158412.0,219387.0,9506.0
1679515477013461,158456.0,219432.0,9520.0
1679515477023461,158500.0,219481.0,9522.0
1679515477033461,158551.0,219516.0,9527.0
1679515477043461,158592.0,219470.0,9538.0
1679515477053461,158616.0,219500.0,9530.0
1679515477063461,158647.0,219562.0,9533.0
1679515477073462,158679.0,219623.0,9550.0
1679515477084462,158724.0,219630.0,9550.0
1679515477093462,158754.0,219660.0,9555.0
1679515477103462,158754.0,219683.0,9551.0
1679515477113462,158787.0,219659.0,9556.0
1679515477123462,158810.0,219729.0,9563.0
1679515477133462,158841.0,219710.0,9551.0
1679515477144461,158820.0,219751.0,9567.0
1679515477153462,158838.0,219732.0,9562.0
1679515477163462,158851.0,219735.0,9561.0
1679515477173462,158865.0,219745.0,9554.0
1679515477183462,158858.0,219709.0,9573.0
1679515477193462,158857.0,219671.0,9563.0
1679515477204461,158859.0,219693.0,9566.0
1679515477213462,158868.0,219723.0,9575.0
1679515477223461,158866.0,219725.0,9571.0
1679515477233461,158881.0,219704.0,9567.0
1679515477244461,158885.0,219706.0,9566.0
1679515477253461,158892.0,219720.0,9565.0
1679515477263461,158885.0,219759.0,9564.0
1679515477273461,158901.0,219759.0,9578.0
1679515477284461,158935.0,219822.0,9576.0
1679515477293461,158935.0,219823.0,9580.0
1679515477302461,158950.0,219818.0,9562.0
1679515477313461,158965.0,219792.0,9551.0
1679515477323461,158975.0,219794.0,9573.0
1679515477334461,159004.0,219825.0,9573.0
1679515477342461,159006.0,219836.0,9563.0
1679515477353461,159026.0,219844.0,9550.0
1679515477363461,159040.0,219842.0,9573.0
1679515477373461,159021.0,219860.0,9550.0
1679515477383461,159049.0,219888.0,9589.0
1679515477393461,159055.0,219889.0,9597.0
1679515477404461,159059.0,219880.0,9600.0
1679515477413461,159077.0,219856.0,9597.0
1679515477423461,159086.0,219850.0,9589.0
1679515477433462,159084.0,219884.0,9601.0
1679515477443462,159091.0,219902.0,9601.0
1679515477454461,159108.0,219887.0,9585.0
1679515477462461,159072.0,219934.0,9594.0
1679515477473461,159110.0,219911.0,9604.0
1679515477483461,159122.0,219920.0,9595.0
1679515477493461,159131.0,219921.0,9603.0
1679515477502461,159140.0,219913.0,9593.0
1679515477513461,159147.0,219927.0,9576.0
1679515477523461,159127.0,219940.0,9602.0
1679515477533461,159176.0,219931.0,9575.0
1679515477543461,159186.0,219926.0,9571.0
1679515477553461,159140.0,219938.0,9600.0
1679515477563461,159172.0,219934.0,9601.0
1679515477574461,159201.0,219942.0,9586.0
1679515477584461,159176.0,219937.0,9596.0
1679515477593461,159212.0,219937.0,9611.0
1679515477603461,159210.0,219941.0,9611.0
1679515477613462,159214.0,219938.0,9611.0
1679515477623462,159220.0,219965.0,9619.0
1679515477633462,159241.0,219929.0,9580.0
1679515477642462,159249.0,219973.0,9609.0
1679515477653462,159253.0,219950.0,9612.0
1679515477663462,159266.0,219974.0,9613.0
1679515477673462,159274.0,219985.0,9585.0
1679515477683462,159295.0,219977.0,9598.0
1679515477693462,159290.0,219958.0,9625.0
1679515477703462,159314.0,219978.0,9614.0
1679515477713462,159315.0,219994.0,9617.0
1679515477723461,159324.0,220015.0,9627.0
1679515477733461,159333.0,220008.0,9624.0
1679515477744461,159295.0,219988.0,9626.0
1679515477753461,159242.0,219901.0,9609.0
1679515477762462,159116.0,219788.0,9574.0
1679515477773461,158906.0,219605.0,9547.0
1679515477784461,158641.0,219400.0,9531.0
1679515477793462,158344.0,219082.0,9478.0
1679515477803462,158004.0,218860.0,9422.0
1679515477813462,157711.0,218610.0,9388.0
1679515477824462,157479.0,218396.0,9357.0
1679515477833462,157311.0,218247.0,9341.0
1679515477842462,157185.0,218147.0,9325.0
1679515477853462,157119.0,218161.0,9324.0
1679515477863462,157130.0,218171.0,9317.0
1679515477874462,157232.0,218274.0,9326.0
1679515477882461,157360.0,218340.0,9352.0
1679515477893461,157528.0,218447.0,9330.0
1679515477903461,157660.0,218552.0,9373.0
1679515477913461,157776.0,218686.0,9385.0
1679515477922461,157946.0,218801.0,9382.0
1679515477933461,158085.0,218904.0,9410.0
1679515477943461,158199.0,219002.0,9456.0
1679515477953461,158332.0,219100.0,9452.0
1679515477962461,158431.0,219182.0,9488.0
1679515477973461,158506.0,219287.0,9477.0
1679515477983461,158627.0,219345.0,9475.0
1679515477993461,158705.0,219420.0,9486.0
1679515478002462,158803.0,219519.0,9517.0
1679515478013461,158891.0,219545.0,9528.0
1679515478023461,158956.0,219608.0,9550.0
1679515478033461,158997.0,219681.0,9566.0
1679515478043461,158988.0,219690.0,9569.0
1679515478053461,158987.0,219671.0,9567.0
1679515478063461,158994.0,219667.0,9563.0
1679515478073461,158954.0,219606.0,9550.0
1679515478083461,158884.0,219553.0,9540.0
1679515478093461,158808.0,219510.0,9533.0
1679515478102461,158734.0,219451.0,9531.0
1679515478113461,158681.0,219406.0,9510.0
1679515478123461,158621.0,219336.0,9496.0
1679515478133461,158592.0,219302.0,9468.0
1679515478142461,158566.0,219259.0,9487.0
1679515478153462,158493.0,219274.0,9502.0
1679515478163462,158499.0,219247.0,9495.0
1679515478173462,158553.0,219283.0,9496.0
1679515478182462,158585.0,219208.0,9511.0
1679515478193462,158621.0,219330.0,9503.0
1679515478203462,158625.0,219362.0,9515.0
1679515478213462,158693.0,219342.0,9513.0
1679515478223461,158725.0,219356.0,9527.0
1679515478233461,158789.0,219367.0,9537.0
1679515478243461,158833.0,219412.0,9535.0
1679515478253461,158846.0,219455.0,9536.0
1679515478262462,158897.0,219526.0,9546.0
1679515478273461,158938.0,219556.0,9549.0
1679515478283461,158982.0,219599.0,9564.0
1679515478293461,158963.0,219626.0,9567.0
1679515478302461,158996.0,219612.0,9558.0
1679515478313461,159031.0,219621.0,9568.0
1679515478323461,159040.0,219614.0,9540.0
1679515478334462,159034.0,219600.0,9567.0
1679515478342461,159030.0,219606.0,9560.0
1679515478353461,159097.0,219582.0,9559.0
1679515478363461,159114.0,219527.0,9555.0
1679515478373461,159149.0,219569.0,9554.0
1679515478382461,159253.0,219630.0,9576.0
1679515478393461,159351.0,219658.0,9580.0
1679515478403461,159391.0,219639.0,9582.0
1679515478413461,159437.0,219673.0,9596.0
1679515478422461,159511.0,219661.0,9599.0
1679515478433461,159606.0,219694.0,9601.0
1679515478443461,159763.0,219775.0,9621.0
1679515478453461,159954.0,219770.0,9636.0
1679515478462461,160082.0,219793.0,9640.0
1679515478473461,160229.0,219815.0,9668.0
1679515478483461,160373.0,219819.0,9686.0
1679515478493461,160483.0,219928.0,9684.0
1679515478502461,160522.0,219943.0,9714.0
1679515478513461,160560.0,219985.0,9711.0
1679515478523461,160532.0,219960.0,9702.0
1679515478533461,160612.0,219983.0,9708.0
1679515478543461,160600.0,219999.0,9717.0
1679515478553461,160597.0,220046.0,9703.0
1679515478563461,160591.0,220033.0,9714.0
1679515478573461,160610.0,220034.0,9725.0
1679515478583461,160590.0,220022.0,9705.0
1679515478593461,160543.0,220071.0,9708.0
1679515478602461,160435.0,220072.0,9720.0
1679515478613461,160330.0,220085.0,9704.0
1679515478623461,160244.0,220046.0,9692.0
1679515478633461,160144.0,220061.0,9698.0
1679515478642461,160062.0,220055.0,9692.0
1679515478653461,160003.0,220033.0,9664.0
1679515478663461,159926.0,220035.0,9676.0
1679515478672461,159893.0,220048.0,9672.0
1679515478683461,159862.0,220008.0,9648.0
1679515478693462,159818.0,220035.0,9657.0
1679515478703462,159849.0,219988.0,9654.0
1679515478713462,159801.0,220001.0,9671.0
1679515478722462,159819.0,220017.0,9644.0
1679515478733461,159799.0,220016.0,9653.0
1679515478743461,159789.0,220014.0,9660.0
1679515478753461,159803.0,220012.0,9662.0
1679515478762462,159804.0,219955.0,9659.0
1679515478773461,159804.0,219985.0,9655.0
1679515478784461,159787.0,219994.0,9653.0
1679515478793461,159775.0,219951.0,9648.0
1679515478802461,159772.0,219997.0,9661.0
1679515478813461,159783.0,220024.0,9645.0
1679515478823461,159772.0,220003.0,9650.0
1679515478833461,159772.0,220020.0,9653.0
1679515478842461,159768.0,219955.0,9660.0
1679515478853461,159796.0,219997.0,9653.0
1679515478863461,159775.0,219993.0,9657.0
1679515478873462,159782.0,219931.0,9657.0
1679515478883462,159768.0,219946.0,9649.0
1679515478892462,159767.0,219952.0,9680.0
1679515478902462,159782.0,219996.0,9655.0
1679515478912462,159787.0,220025.0,9665.0
1679515478921462,159797.0,220000.0,9651.0
1679515478932462,159811.0,219975.0,9664.0
1679515478942462,159805.0,219998.0,9657.0
1679515478952462,159823.0,219993.0,9673.0
1679515478961462,159838.0,220016.0,9666.0
1679515478972462,159840.0,220015.0,9672.0
1679515478983461,159852.0,220010.0,9668.0
1679515478992462,159876.0,220029.0,9675.0
1679515479001462,159883.0,219998.0,9658.0
1679515479012462,159854.0,220002.0,9662.0
1679515479021462,159817.0,219986.0,9668.0
1679515479032462,159748.0,219906.0,9653.0
1679515479042461,159620.0,219795.0,9625.0
1679515479053462,159391.0,219574.0,9579.0
1679515479063462,159089.0,219340.0,9542.0
1679515479072462,158791.0,219106.0,9511.0
1679515479085462,158496.0,218849.0,9430.0
1679515479093462,158217.0,218619.0,9425.0
1679515479103462,157975.0,218407.0,9389.0
1679515479113462,157845.0,218305.0,9373.0
1679515479123462,157787.0,218254.0,9359.0
1679515479132462,157750.0,218210.0,9364.0
1679515479143462,157804.0,218275.0,9343.0
1679515479152462,157886.0,218360.0,9366.0
1679515479163462,158015.0,218432.0,9378.0
1679515479172462,158139.0,218559.0,9386.0
1679515479182462,158289.0,218701.0,9416.0
1679515479193462,158443.0,218786.0,9442.0
1679515479203462,158567.0,218890.0,9470.0
1679515479212462,158700.0,218962.0,9484.0
1679515479222462,158805.0,219079.0,9498.0
1679515479233461,158932.0,219193.0,9522.0
1679515479243461,159024.0,219246.0,9540.0
1679515479252462,159125.0,219352.0,9536.0
1679515479262462,159217.0,219442.0,9552.0
1679515479272462,159275.0,219524.0,9561.0
1679515479283461,159404.0,219585.0,9561.0
1679515479293461,159441.0,219679.0,9599.0
1679515479302461,159548.0,219695.0,9574.0
1679515479312461,159585.0,219692.0,9592.0
1679515479323461,159586.0,219731.0,9569.0
1679515479333461,159581.0,219705.0,9592.0
1679515479342461,159539.0,219668.0,9592.0
1679515479352461,159464.0,219621.0,9558.0
1679515479363461,159429.0,219557.0,9557.0
1679515479373461,159354.0,219485.0,9557.0
1679515479382461,159284.0,219450.0,9533.0
1679515479392461,159210.0,219393.0,9554.0
1679515479403461,159181.0,219354.0,9535.0
1679515479413462,159134.0,219345.0,9501.0
1679515479422462,159121.0,219303.0,9523.0
1679515479432462,159050.0,219320.0,9547.0
1679515479443462,159116.0,219308.0,9557.0
1679515479453462,159143.0,219300.0,9540.0
1679515479463462,159151.0,219320.0,9531.0
1679515479472462,159200.0,219374.0,9553.0
1679515479483461,159230.0,219434.0,9570.0
1679515479493461,159274.0,219424.0,9554.0
1679515479502462,159314.0,219435.0,9559.0
1679515479512462,159352.0,219422.0,9565.0
1679515479523461,159383.0,219525.0,9593.0
1679515479533461,159448.0,219519.0,9589.0
1679515479543461,159484.0,219567.0,9587.0
1679515479552461,159493.0,219608.0,9605.0
1679515479563461,159545.0,219648.0,9603.0
1679515479573461,159577.0,219629.0,9591.0
1679515479583461,159582.0,219689.0,9608.0
1679515479592461,159620.0,219660.0,9611.0
1679515479603461,159647.0,219761.0,9609.0
1679515479613461,159639.0,219689.0,9612.0
1679515479623461,159678.0,219753.0,9616.0
1679515479632461,159676.0,219764.0,9627.0
1679515479642461,159679.0,219765.0,9622.0
1679515479653461,159718.0,219782.0,9588.0
1679515479662461,159725.0,219792.0,9603.0
1679515479672461,159726.0,219769.0,9599.0
1679515479683461,159742.0,219773.0,9621.0
1679515479692461,159735.0,219769.0,9628.0
1679515479703461,159741.0,219778.0,9619.0
1679515479712461,159742.0,219775.0,9628.0
1679515479723461,159760.0,219757.0,9631.0
1679515479732461,159768.0,219763.0,9635.0
1679515479743461,159777.0,219852.0,9632.0
1679515479752461,159817.0,219802.0,9635.0
1679515479763461,159847.0,219832.0,9645.0
1679515479772462,159859.0,219850.0,9648.0
1679515479782462,159899.0,219877.0,9649.0
1679515479793461,160003.0,219940.0,9648.0
1679515479802461,160101.0,219995.0,9684.0
1679515479812461,160233.0,220013.0,9689.0
1679515479822461,160407.0,220126.0,9713.0
1679515479833461,160596.0,220281.0,9703.0
1679515479842461,160777.0,220386.0,9755.0
1679515479852461,160962.0,220447.0,9784.0
1679515479862461,161116.0,220549.0,9776.0
1679515479873461,161273.0,220619.0,9808.0
1679515479882461,161438.0,220715.0,9839.0
1679515479892461,161571.0,220778.0,9861.0
1679515479903461,161748.0,220907.0,9887.0
1679515479913461,161940.0,220984.0,9938.0
1679515479922461,162217.0,221055.0,9977.0
1679515479932461,162583.0,221175.0,10033.0
1679515479943461,162950.0,221209.0,10094.0
1679515479953462,163433.0,221287.0,10162.0
1679515479961461,164148.0,221394.0,10295.0
1679515479972461,165225.0,221507.0,10428.0
1679515479982461,166925.0,221531.0,10723.0
1679515479993461,168628.0,221463.0,10994.0
1679515480002461,169925.0,221330.0,11190.0
1679515480012461,170845.0,221084.0,11381.0
1679515480023461,171635.0,220874.0,11510.0
1679515480033461,172198.0,220749.0,11603.0
1679515480042461,172632.0,220622.0,11668.0
1679515480052461,172969.0,220531.0,11719.0
1679515480062461,173255.0,220409.0,11784.0
1679515480073461,173533.0,220286.0,11873.0
1679515480082461,173902.0,220152.0,11947.0
1679515480093461,174192.0,220079.0,11965.0
1679515480102461,174378.0,220028.0,12021.0
1679515480112461,174643.0,219945.0,12056.0
1679515480122461,174759.0,219926.0,12103.0
1679515480132462,174899.0,219906.0,12092.0
1679515480142462,175002.0,219922.0,12150.0
1679515480153462,175040.0,219951.0,12139.0
1679515480162462,175079.0,219998.0,12174.0
1679515480172462,175123.0,220090.0,12144.0
1679515480182462,175129.0,220227.0,12127.0
1679515480194462,175014.0,220391.0,12143.0
1679515480202462,174919.0,220544.0,12119.0
1679515480212462,174856.0,220664.0,12074.0
1679515480222462,174723.0,220802.0,12030.0
1679515480232462,174564.0,220928.0,11986.0
1679515480242462,174381.0,221025.0,11965.0
1679515480252462,174187.0,221176.0,11910.0
1679515480262462,173948.0,221310.0,11877.0
1679515480272462,173662.0,221421.0,11806.0
1679515480282462,173275.0,221583.0,11737.0
1679515480294462,172841.0,221699.0,11643.0
1679515480302461,172251.0,221793.0,11570.0
1679515480312461,171525.0,221863.0,11454.0
1679515480322461,170701.0,221886.0,11304.0
1679515480333461,169792.0,221911.0,11125.0
1679515480342461,168733.0,221821.0,10981.0
1679515480352461,167748.0,221679.0,10815.0
1679515480362461,166761.0,221561.0,10656.0
1679515480373461,165895.0,221430.0,10504.0
1679515480382461,165094.0,221303.0,10397.0
1679515480392461,164398.0,221225.0,10301.0
1679515480402461,163816.0,221109.0,10204.0
1679515480413461,163439.0,221027.0,10093.0
1679515480421461,163077.0,220953.0,10088.0
1679515480432461,162767.0,220906.0,10048.0
1679515480442461,162569.0,220871.0,10003.0
1679515480453461,162425.0,220884.0,9985.0
1679515480461461,162264.0,220872.0,9994.0
1679515480472461,162155.0,220854.0,9973.0
1679515480482461,162112.0,220872.0,9940.0
1679515480493461,162050.0,220858.0,9942.0
1679515480501461,161987.0,220852.0,9950.0
1679515480512461,161937.0,220869.0,9941.0
1679515480522461,161853.0,220872.0,9961.0
1679515480532461,161850.0,220892.0,9925.0
1679515480542461,161839.0,220916.0,9912.0
1679515480552461,161818.0,220869.0,9948.0
1679515480562461,161801.0,220924.0,9946.0
1679515480573461,161765.0,220939.0,9944.0
1679515480582461,161723.0,220929.0,9924.0
1679515480592461,161650.0,220880.0,9925.0
1679515480602461,161526.0,220858.0,9915.0
1679515480612461,161475.0,220756.0,9866.0
1679515480622461,161345.0,220677.0,9869.0
1679515480632461,161232.0,220585.0,9853.0
1679515480642461,161117.0,220520.0,9847.0
1679515480652461,161012.0,220461.0,9833.0
1679515480663461,160917.0,220386.0,9824.0
1679515480672462,160826.0,220339.0,9806.0
1679515480681462,160772.0,220290.0,9808.0
1679515480692462,160751.0,220293.0,9787.0
1679515480703462,160727.0,220248.0,9785.0
1679515480712462,160711.0,220188.0,9791.0
1679515480721462,160700.0,220202.0,9798.0
1679515480732462,160738.0,220297.0,9760.0
1679515480743461,160744.0,220270.0,9798.0
1679515480752462,160775.0,220283.0,9795.0
1679515480762462,160780.0,220357.0,9793.0
1679515480772462,160773.0,220358.0,9807.0
1679515480782462,160771.0,220384.0,9816.0
1679515480793461,160834.0,220392.0,9806.0
1679515480801461,160836.0,220405.0,9820.0
1679515480812461,160917.0,220425.0,9795.0
1679515480823461,160936.0,220444.0,9819.0
1679515480832461,160967.0,220441.0,9816.0
1679515480842461,160968.0,220467.0,9828.0
1679515480852461,160996.0,220487.0,9821.0
1679515480862461,160996.0,220477.0,9831.0
1679515480873461,161010.0,220496.0,9795.0
1679515480881461,161011.0,220511.0,9810.0
1679515480892461,161016.0,220489.0,9807.0
1679515480902461,161014.0,220475.0,9836.0
1679515480912461,161021.0,220498.0,9825.0
1679515480922461,161020.0,220489.0,9836.0
1679515480932461,161035.0,220492.0,9843.0
1679515480943461,160999.0,220490.0,9838.0
1679515480952461,161005.0,220478.0,9833.0
1679515480961461,160999.0,220482.0,9833.0
1679515480972461,160996.0,220468.0,9813.0
1679515480983461,160986.0,220465.0,9829.0
1679515480992461,160993.0,220462.0,9831.0
1679515481002461,160990.0,220456.0,9822.0
1679515481012461,160955.0,220422.0,9836.0
1679515481022461,160982.0,220430.0,9824.0
1679515481032462,160963.0,220397.0,9824.0
1679515481043461,160968.0,220453.0,9849.0
1679515481052461,160982.0,220445.0,9838.0
1679515481062461,161002.0,220417.0,9844.0
1679515481072461,161015.0,220415.0,9832.0
1679515481082461,161008.0,220446.0,9837.0
1679515481092461,161050.0,220510.0,9813.0
1679515481102461,161109.0,220549.0,9858.0
1679515481112461,161208.0,220603.0,9860.0
1679515481123461,161241.0,220567.0,9870.0
1679515481131461,161297.0,220640.0,9879.0
1679515481142461,161377.0,220722.0,9896.0
1679515481152461,161459.0,220763.0,9892.0
1679515481163461,161507.0,220814.0,9908.0
1679515481171461,161564.0,220869.0,9911.0
1679515481182461,161614.0,220872.0,9918.0
1679515481192461,161652.0,220882.0,9937.0
1679515481202461,161694.0,220936.0,9941.0
1679515481211462,161769.0,220952.0,9939.0
1679515481222462,161724.0,220977.0,9947.0
1679515481232462,161780.0,220946.0,9957.0
1679515481243461,161768.0,220957.0,9957.0
1679515481251461,161771.0,220913.0,9952.0
1679515481261461,161776.0,220930.0,9939.0
1679515481272461,161762.0,220936.0,9919.0
1679515481282461,161752.0,220940.0,9932.0
1679515481292461,161752.0,220924.0,9922.0
1679515481302461,161716.0,220944.0,9918.0
1679515481312461,161710.0,220974.0,9935.0
1679515481322461,161680.0,220889.0,9943.0
1679515481332461,161679.0,220882.0,9921.0
1679515481342461,161645.0,220871.0,9926.0
1679515481352461,161623.0,220847.0,9934.0
1679515481362461,161607.0,220838.0,9940.0
1679515481372461,161610.0,220769.0,9932.0
1679515481382461,161599.0,220780.0,9928.0
1679515481392462,161600.0,220767.0,9931.0
1679515481403462,161593.0,220787.0,9924.0
1679515481412462,161586.0,220815.0,9919.0
1679515481422462,161575.0,220825.0,9925.0
1679515481432462,161576.0,220798.0,9922.0
1679515481442462,161581.0,220766.0,9930.0
1679515481452462,161588.0,220811.0,9933.0
1679515481462462,161556.0,220793.0,9930.0
1679515481472462,161546.0,220792.0,9922.0
1679515481481462,161544.0,220765.0,9897.0
1679515481492462,161513.0,220733.0,9910.0
1679515481503461,161459.0,220686.0,9901.0
1679515481511461,161320.0,220588.0,9873.0
1679515481522461,161090.0,220391.0,9844.0
1679515481532461,160846.0,220211.0,9812.0
1679515481543461,160567.0,219984.0,9763.0
1679515481551461,160268.0,219721.0,9723.0
1679515481562461,159978.0,219510.0,9677.0
1679515481572461,159725.0,219336.0,9647.0
1679515481583461,159572.0,219189.0,9626.0
1679515481591461,159495.0,219154.0,9605.0
1679515481604461,159456.0,219166.0,9610.0
1679515481612461,159462.0,219169.0,9616.0
1679515481623461,159545.0,219231.0,9625.0
1679515481631461,159645.0,219316.0,9641.0
1679515481642461,159781.0,219405.0,9662.0
1679515481652461,159924.0,219511.0,9657.0
1679515481662461,160049.0,219635.0,9704.0
1679515481671461,160165.0,219749.0,9698.0
1679515481681461,160336.0,219859.0,9702.0
1679515481692461,160402.0,219960.0,9762.0
1679515481702461,160488.0,220023.0,9773.0
1679515481711461,160612.0,220110.0,9790.0
1679515481721461,160755.0,220189.0,9791.0
1679515481732461,160863.0,220250.0,9808.0
1679515481742461,160939.0,220326.0,9827.0
1679515481751462,161022.0,220406.0,9805.0
1679515481761462,161092.0,220416.0,9835.0
1679515481772462,161104.0,220484.0,9855.0
1679515481782462,161157.0,220485.0,9852.0
1679515481792461,161129.0,220479.0,9855.0
1679515481801462,161107.0,220457.0,9846.0
1679515481812461,161053.0,220373.0,9832.0
1679515481822461,160967.0,220340.0,9841.0
1679515481832461,160865.0,220290.0,9826.0
1679515481841462,160817.0,220243.0,9801.0
1679515481852461,160727.0,220175.0,9809.0
1679515481862461,160643.0,220120.0,9788.0
1679515481872461,160629.0,220091.0,9778.0
1679515481881461,160589.0,220053.0,9767.0
1679515481892461,160556.0,220032.0,9783.0
1679515481902461,160561.0,220025.0,9766.0
1679515481912461,160559.0,220043.0,9768.0
1679515481921461,160592.0,220074.0,9763.0
1679515481932462,160633.0,220059.0,9764.0
1679515481941462,160656.0,220091.0,9770.0
1679515481952462,160662.0,220122.0,9797.0
1679515481961462,160715.0,220161.0,9797.0
1679515481972462,160756.0,220175.0,9798.0
1679515481982462,160788.0,220259.0,9811.0
1679515481992462,160833.0,220253.0,9816.0
1679515482001462,160879.0,220294.0,9818.0
1679515482012462,160911.0,220331.0,9823.0
1679515482021462,160887.0,220323.0,9832.0
1679515482032462,160943.0,220354.0,9826.0
1679515482042461,160997.0,220379.0,9816.0
1679515482051462,161038.0,220394.0,9798.0
1679515482061462,161054.0,220405.0,9839.0
1679515482072461,161087.0,220435.0,9823.0
1679515482082461,161079.0,220436.0,9839.0
1679515482091462,161105.0,220475.0,9834.0
1679515482101462,161107.0,220462.0,9843.0
1679515482112461,161113.0,220471.0,9830.0
1679515482122461,161113.0,220451.0,9862.0
1679515482131461,161125.0,220470.0,9853.0
1679515482141461,161120.0,220471.0,9842.0
1679515482152461,161111.0,220476.0,9823.0
1679515482162461,161129.0,220490.0,9851.0
1679515482172461,161101.0,220440.0,9855.0
1679515482181461,161109.0,220483.0,9856.0
1679515482192461,161116.0,220495.0,9860.0
1679515482202461,161120.0,220464.0,9872.0
1679515482211461,161122.0,220513.0,9863.0
1679515482221461,161109.0,220514.0,9860.0
1679515482232461,161095.0,220518.0,9841.0
1679515482242461,161131.0,220508.0,9828.0
1679515482251461,161152.0,220519.0,9846.0
1679515482261461,161155.0,220527.0,9851.0
1679515482272461,161164.0,220521.0,9837.0
1679515482282461,161163.0,220530.0,9857.0
1679515482292461,161171.0,220542.0,9832.0
1679515482301462,161183.0,220557.0,9850.0
1679515482312461,161140.0,220573.0,9880.0
1679515482321462,161201.0,220548.0,9876.0
1679515482332461,161173.0,220572.0,9864.0
1679515482341462,161201.0,220566.0,9851.0
1679515482352461,161215.0,220532.0,9874.0
1679515482362461,161226.0,220572.0,9878.0
1679515482372461,161240.0,220600.0,9891.0
1679515482381461,161240.0,220586.0,9875.0
1679515482392461,161250.0,220600.0,9884.0
1679515482402461,161272.0,220617.0,9890.0
1679515482412461,161278.0,220556.0,9880.0
1679515482421461,161314.0,220663.0,9883.0
1679515482432461,161267.0,220636.0,9892.0
1679515482441461,161256.0,220652.0,9890.0
1679515482452461,161265.0,220624.0,9897.0
1679515482461461,161284.0,220666.0,9894.0
1679515482472462,161316.0,220680.0,9899.0
1679515482481462,161308.0,220674.0,9892.0
1679515482492462,161321.0,220638.0,9886.0
1679515482501462,161336.0,220633.0,9903.0
1679515482512462,161326.0,220645.0,9903.0
1679515482521462,161333.0,220701.0,9889.0
1679515482532462,161322.0,220580.0,9887.0
1679515482542461,161307.0,220610.0,9885.0
1679515482552461,161300.0,220626.0,9906.0
1679515482561462,161321.0,220613.0,9896.0
1679515482572461,161309.0,220600.0,9897.0
1679515482582461,161315.0,220614.0,9880.0
1679515482592461,161327.0,220613.0,9900.0
1679515482601462,161337.0,220603.0,9896.0
1679515482612461,161327.0,220603.0,9895.0
1679515482622461,161331.0,220681.0,9893.0
1679515482631461,161351.0,220662.0,9912.0
1679515482641461,161338.0,220654.0,9909.0
1679515482652462,161342.0,220670.0,9897.0
1679515482662462,161332.0,220648.0,9890.0
1679515482672462,161285.0,220556.0,9891.0
1679515482681462,161183.0,220496.0,9871.0
1679515482692462,161002.0,220315.0,9849.0
1679515482702462,160747.0,220083.0,9802.0
1679515482712462,160461.0,219908.0,9764.0
1679515482721462,160124.0,219649.0,9708.0
1679515482731462,159818.0,219419.0,9674.0
1679515482742462,159576.0,219189.0,9622.0
1679515482751462,159371.0,219050.0,9609.0
1679515482761462,159239.0,218956.0,9589.0
1679515482771462,159176.0,218921.0,9552.0
1679515482782462,159207.0,218940.0,9554.0
1679515482792461,159273.0,218977.0,9566.0
1679515482801462,159359.0,219080.0,9588.0
1679515482813462,159492.0,219164.0,9628.0
1679515482822462,159637.0,219310.0,9641.0
1679515482832461,159767.0,219403.0,9668.0
1679515482840461,159925.0,219567.0,9687.0
1679515482850461,160050.0,219655.0,9687.0
1679515482861461,160175.0,219742.0,9717.0
1679515482870461,160260.0,219856.0,9725.0
1679515482880461,160408.0,219922.0,9727.0
1679515482890461,160501.0,220001.0,9762.0
1679515482901461,160591.0,220048.0,9773.0
1679515482911461,160682.0,220111.0,9782.0
1679515482920461,160779.0,220213.0,9817.0
1679515482930461,160824.0,220243.0,9815.0
1679515482941461,160927.0,220316.0,9802.0
1679515482950461,160943.0,220345.0,9812.0
1679515482960461,160998.0,220365.0,9805.0
1679515482970461,160997.0,220334.0,9824.0
1679515482981461,160990.0,220335.0,9817.0
1679515482991461,160945.0,220283.0,9820.0
1679515483000461,160879.0,220246.0,9831.0
1679515483012462,160808.0,220189.0,9813.0
1679515483021462,160744.0,220136.0,9805.0
1679515483031462,160676.0,220088.0,9796.0
1679515483042461,160595.0,220044.0,9756.0
1679515483051462,160548.0,219996.0,9756.0
1679515483061462,160524.0,219966.0,9739.0
1679515483071462,160488.0,219979.0,9741.0
1679515483082461,160505.0,219954.0,9739.0
1679515483091462,160499.0,219957.0,9762.0
1679515483101462,160527.0,219989.0,9766.0
1679515483112461,160543.0,220030.0,9776.0
1679515483122461,160575.0,220044.0,9795.0
1679515483131461,160607.0,220021.0,9784.0
1679515483141461,160653.0,220064.0,9799.0
1679515483152461,160693.0,220116.0,9804.0
1679515483162461,160713.0,220132.0,9801.0
1679515483171461,160750.0,220202.0,9826.0
1679515483181461,160799.0,220238.0,9823.0
1679515483192462,160835.0,220241.0,9829.0
1679515483202462,160867.0,220308.0,9836.0
1679515483211462,160892.0,220283.0,9843.0
1679515483221462,160917.0,220295.0,9842.0
1679515483232462,160951.0,220379.0,9837.0
1679515483242462,160958.0,220405.0,9843.0
1679515483251462,160994.0,220370.0,9854.0
1679515483261462,161021.0,220404.0,9852.0
1679515483271462,161023.0,220396.0,9846.0
1679515483282462,161037.0,220413.0,9810.0
1679515483291462,161043.0,220430.0,9830.0
1679515483301462,161051.0,220411.0,9826.0
1679515483311462,161014.0,220417.0,9831.0
1679515483322461,161036.0,220430.0,9819.0
1679515483332461,161021.0,220435.0,9859.0
1679515483341462,161027.0,220419.0,9855.0
1679515483352461,161024.0,220409.0,9858.0
1679515483361462,161046.0,220388.0,9860.0
1679515483372462,161039.0,220420.0,9860.0
1679515483381462,161040.0,220431.0,9859.0
1679515483391462,161032.0,220431.0,9843.0
1679515483402462,161010.0,220443.0,9865.0
1679515483411462,160993.0,220451.0,9868.0
1679515483421462,161044.0,220455.0,9858.0
1679515483431462,161077.0,220431.0,9871.0
1679515483442462,161084.0,220447.0,9861.0
1679515483452462,161085.0,220458.0,9860.0
1679515483461462,161098.0,220440.0,9869.0
1679515483471462,161110.0,220441.0,9871.0
1679515483482462,161099.0,220464.0,9860.0
1679515483491462,161131.0,220488.0,9875.0
1679515483501462,161121.0,220480.0,9870.0
1679515483511462,161136.0,220464.0,9868.0
1679515483522462,161155.0,220512.0,9872.0
1679515483531462,161126.0,220527.0,9878.0
1679515483542461,161168.0,220558.0,9880.0
1679515483551462,161173.0,220550.0,9869.0
1679515483562461,161180.0,220564.0,9875.0
1679515483571462,161202.0,220558.0,9885.0
1679515483582461,161217.0,220568.0,9892.0
1679515483591462,161212.0,220550.0,9896.0
1679515483601462,161226.0,220559.0,9892.0
1679515483611462,161241.0,220556.0,9849.0
1679515483622461,161236.0,220559.0,9883.0
1679515483631461,161188.0,220508.0,9894.0
1679515483642461,161223.0,220565.0,9890.0
1679515483651461,161232.0,220539.0,9899.0
1679515483662461,161247.0,220528.0,9895.0
1679515483671461,161246.0,220599.0,9890.0
1679515483681461,161253.0,220553.0,9902.0
1679515483691461,161262.0,220558.0,9900.0
1679515483702461,161258.0,220590.0,9897.0
1679515483711461,161272.0,220575.0,9895.0
1679515483721461,161263.0,220546.0,9900.0
1679515483731462,161281.0,220556.0,9892.0
1679515483742462,161250.0,220593.0,9907.0
1679515483751462,161250.0,220537.0,9901.0
1679515483761462,161245.0,220579.0,9903.0
1679515483771462,161262.0,220564.0,9897.0
1679515483781462,161261.0,220556.0,9900.0
1679515483792461,161241.0,220611.0,9904.0
1679515483801462,161230.0,220583.0,9901.0
1679515483811462,161283.0,220595.0,9867.0
1679515483821462,161288.0,220614.0,9902.0
1679515483832461,161295.0,220605.0,9873.0
1679515483840461,161298.0,220604.0,9886.0
1679515483851461,161317.0,220601.0,9892.0
1679515483862461,161301.0,220606.0,9907.0
1679515483872461,161281.0,220589.0,9897.0
1679515483881461,161212.0,220538.0,9889.0
1679515483891461,161076.0,220431.0,9867.0
1679515483902461,160866.0,220253.0,9838.0
1679515483912462,160633.0,220036.0,9800.0
1679515483921462,160316.0,219798.0,9753.0
1679515483931462,160028.0,219570.0,9709.0
1679515483941462,159714.0,219331.0,9631.0
1679515483952462,159465.0,219119.0,9588.0
1679515483961462,159301.0,218995.0,9596.0
1679515483971462,159181.0,218927.0,9588.0
1679515483981462,159138.0,218923.0,9574.0
1679515483992462,159148.0,218939.0,9601.0
1679515484001462,159249.0,219001.0,9610.0
1679515484011462,159358.0,219094.0,9612.0
1679515484021462,159469.0,219183.0,9638.0
1679515484032462,159634.0,219316.0,9616.0
1679515484041462,159759.0,219399.0,9667.0
1679515484051462,159906.0,219525.0,9669.0
1679515484061462,160055.0,219623.0,9675.0
1679515484071462,160180.0,219716.0,9695.0
1679515484081462,160281.0,219813.0,9743.0
1679515484091462,160397.0,219903.0,9747.0
1679515484101462,160482.0,219963.0,9780.0
1679515484111462,160561.0,220070.0,9768.0
1679515484122461,160634.0,220139.0,9787.0
1679515484131461,160733.0,220224.0,9806.0
1679515484141461,160818.0,220243.0,9827.0
1679515484151461,160861.0,220310.0,9837.0
1679515484161461,160869.0,220307.0,9849.0
1679515484171461,160895.0,220307.0,9843.0
1679515484181461,160890.0,220297.0,9841.0
1679515484191461,160871.0,220285.0,9829.0
1679515484201461,160829.0,220243.0,9820.0
1679515484211461,160751.0,220177.0,9824.0
1679515484222461,160671.0,220125.0,9816.0
1679515484231461,160607.0,220078.0,9834.0
1679515484241461,160510.0,220009.0,9761.0
1679515484251461,160486.0,219984.0,9739.0
1679515484260461,160438.0,219907.0,9761.0
1679515484271462,160426.0,219917.0,9736.0
1679515484281462,160409.0,219879.0,9755.0
1679515484292461,160377.0,219900.0,9757.0
1679515484300461,160381.0,219923.0,9756.0
1679515484311461,160413.0,219932.0,9733.0
1679515484323461,160453.0,219984.0,9749.0
1679515484332461,160479.0,220004.0,9819.0
1679515484340461,160472.0,220018.0,9800.0
1679515484351461,160532.0,220058.0,9762.0
1679515484361461,160556.0,220117.0,9804.0
1679515484372461,160564.0,220117.0,9805.0
1679515484380461,160597.0,220137.0,9805.0
1679515484391461,160640.0,220164.0,9813.0
1679515484401461,160688.0,220182.0,9797.0
1679515484412461,160742.0,220222.0,9785.0
1679515484420461,160758.0,220233.0,9802.0
1679515484431461,160797.0,220255.0,9784.0
1679515484442461,160795.0,220261.0,9838.0
1679515484451462,160816.0,220276.0,9835.0
1679515484460462,160827.0,220250.0,9839.0
1679515484471462,160848.0,220293.0,9827.0
1679515484482462,160847.0,220282.0,9827.0
1679515484491462,160846.0,220290.0,9828.0
1679515484501462,160840.0,220302.0,9845.0
1679515484511462,160839.0,220287.0,9819.0
1679515484521462,160838.0,220299.0,9823.0
1679515484531462,160832.0,220286.0,9821.0
1679515484542461,160823.0,220237.0,9836.0
1679515484551462,160821.0,220210.0,9823.0
1679515484561462,160794.0,220229.0,9829.0
1679515484571462,160801.0,220236.0,9840.0
1679515484582461,160791.0,220212.0,9833.0
1679515484591462,160786.0,220219.0,9827.0
1679515484601462,160804.0,220230.0,9838.0
1679515484611462,160802.0,220245.0,9830.0
1679515484622461,160807.0,220274.0,9834.0
1679515484631461,160829.0,220260.0,9835.0
1679515484641461,160827.0,220321.0,9838.0
1679515484651461,160845.0,220233.0,9842.0
1679515484662461,160851.0,220304.0,9843.0
1679515484671461,160846.0,220315.0,9836.0
1679515484681461,160867.0,220343.0,9847.0
1679515484691461,160881.0,220348.0,9835.0
1679515484701461,160875.0,220357.0,9838.0
1679515484711461,160866.0,220353.0,9845.0
1679515484721461,160899.0,220361.0,9850.0
1679515484731461,160906.0,220368.0,9848.0
1679515484741461,160890.0,220372.0,9843.0
1679515484751461,160874.0,220381.0,9860.0
1679515484760461,160886.0,220368.0,9853.0
1679515484771461,160928.0,220367.0,9842.0
1679515484781461,160897.0,220394.0,9859.0
1679515484792461,160911.0,220407.0,9857.0
1679515484800461,160912.0,220380.0,9859.0
1679515484811462,160915.0,220422.0,9856.0
1679515484821462,160904.0,220381.0,9859.0
1679515484832461,160943.0,220416.0,9858.0
1679515484840461,160931.0,220364.0,9860.0
1679515484851461,160953.0,220394.0,9835.0
1679515484861461,160957.0,220407.0,9827.0
1679515484872461,160953.0,220318.0,9868.0
1679515484880461,160944.0,220317.0,9854.0
1679515484891461,160932.0,220378.0,9872.0
1679515484901461,160959.0,220389.0,9860.0
1679515484912461,160937.0,220384.0,9850.0
1679515484920461,160949.0,220392.0,9860.0
1679515484931461,160930.0,220344.0,9857.0
1679515484941461,160951.0,220404.0,9867.0
1679515484951461,160898.0,220365.0,9865.0
1679515484960461,160937.0,220371.0,9857.0
1679515484971461,160934.0,220379.0,9858.0
1679515484981461,160907.0,220378.0,9858.0
1679515484992462,160950.0,220399.0,9854.0
1679515485001462,160932.0,220394.0,9862.0
1679515485011462,160960.0,220389.0,9859.0
1679515485021462,160966.0,220391.0,9865.0
1679515485031462,160984.0,220395.0,9873.0
1679515485041462,161051.0,220446.0,9875.0
1679515485051462,161022.0,220398.0,9865.0
1679515485061462,161019.0,220423.0,9878.0
1679515485071462,161022.0,220408.0,9880.0
1679515485081462,161038.0,220435.0,9867.0
1679515485091462,161040.0,220428.0,9868.0
1679515485101462,161051.0,220433.0,9866.0
1679515485112461,161040.0,220420.0,9864.0
1679515485121461,161017.0,220441.0,9877.0
1679515485131461,160961.0,220379.0,9867.0
1679515485141461,160834.0,220329.0,9828.0
1679515485151461,160632.0,220047.0,9819.0
1679515485161461,160384.0,219867.0,9769.0
1679515485171461,160081.0,219646.0,9721.0
1679515485181461,159800.0,219424.0,9680.0
1679515485191461,159505.0,219179.0,9648.0
1679515485201461,159245.0,218999.0,9595.0
1679515485210461,159086.0,218881.0,9562.0
1679515485221461,159024.0,218833.0,9532.0
1679515485232461,158990.0,218786.0,9584.0
1679515485241461,159023.0,218864.0,9574.0
1679515485251461,159046.0,218901.0,9593.0
1679515485261461,159200.0,218984.0,9592.0
1679515485270461,159322.0,219116.0,9600.0
1679515485281461,159506.0,219236.0,9619.0
1679515485291461,159641.0,219372.0,9648.0
1679515485301461,159788.0,219439.0,9670.0
1679515485310461,159912.0,219558.0,9690.0
1679515485321461,160031.0,219663.0,9689.0
1679515485332461,160131.0,219723.0,9731.0
1679515485340461,160245.0,219888.0,9756.0
1679515485351462,160325.0,219833.0,9777.0
1679515485361462,160431.0,219901.0,9777.0
1679515485371461,160534.0,220063.0,9803.0
1679515485381461,160611.0,220128.0,9768.0
1679515485390462,160660.0,220150.0,9804.0
1679515485401461,160719.0,220171.0,9819.0
1679515485411461,160706.0,220149.0,9819.0
1679515485421461,160711.0,220193.0,9811.0
1679515485432461,160669.0,220154.0,9819.0
1679515485441461,160628.0,220093.0,9840.0
1679515485451461,160521.0,220064.0,9804.0
1679515485460461,160453.0,220005.0,9793.0
1679515485470461,160369.0,219933.0,9784.0
1679515485481461,160311.0,219878.0,9734.0
1679515485491461,160232.0,219821.0,9740.0
1679515485501461,160182.0,219780.0,9729.0
1679515485510461,160111.0,219750.0,9718.0
1679515485521461,160125.0,219735.0,9701.0
1679515485531462,160068.0,219729.0,9738.0
1679515485541462,160118.0,219735.0,9706.0
1679515485550462,160091.0,219754.0,9708.0
1679515485561462,160132.0,219775.0,9737.0
1679515485571462,160135.0,219789.0,9749.0
1679515485582461,160166.0,219804.0,9758.0
1679515485590461,160226.0,219790.0,9755.0
1679515485601461,160268.0,219810.0,9768.0
1679515485611461,160310.0,219848.0,9765.0
1679515485621461,160343.0,219885.0,9775.0
1679515485630461,160385.0,219930.0,9772.0
1679515485641461,160412.0,219959.0,9787.0
1679515485651461,160410.0,220044.0,9790.0
1679515485661461,160446.0,220028.0,9798.0
1679515485670461,160459.0,220043.0,9797.0
1679515485681461,160504.0,220070.0,9812.0
1679515485690461,160512.0,220097.0,9811.0
1679515485701461,160550.0,220080.0,9792.0
1679515485710461,160529.0,220121.0,9813.0
1679515485721461,160544.0,220102.0,9814.0
1679515485731461,160573.0,220109.0,9798.0
1679515485741461,160579.0,220123.0,9804.0
1679515485751461,160554.0,220093.0,9806.0
1679515485761461,160566.0,220114.0,9776.0
1679515485771461,160575.0,220090.0,9808.0
1679515485781461,160560.0,220074.0,9811.0
1679515485791461,160578.0,220067.0,9810.0
1679515485801461,160550.0,220065.0,9804.0
1679515485811461,160567.0,220075.0,9808.0
1679515485821461,160553.0,220037.0,9817.0
1679515485831461,160552.0,220077.0,9814.0
1679515485841461,160552.0,220052.0,9810.0
1679515485850461,160581.0,220084.0,9822.0
1679515485861461,160561.0,220082.0,9801.0
1679515485871461,160575.0,220095.0,9806.0
1679515485881461,160575.0,220127.0,9810.0
1679515485890462,160573.0,220101.0,9821.0
1679515485901461,160572.0,220111.0,9821.0
1679515485911461,160598.0,220079.0,9820.0
1679515485921461,160610.0,220125.0,9819.0
1679515485930462,160622.0,220113.0,9808.0
1679515485941461,160635.0,220162.0,9815.0
1679515485951461,160609.0,220092.0,9819.0
1679515485961461,160661.0,220112.0,9821.0
1679515485970461,160677.0,220151.0,9817.0
1679515485981461,160688.0,220188.0,9823.0
1679515485991461,160701.0,220171.0,9837.0
1679515486001461,160723.0,220203.0,9834.0
1679515486010461,160753.0,220222.0,9849.0
1679515486021461,160758.0,220234.0,9839.0
1679515486031461,160757.0,220235.0,9841.0
1679515486041461,160777.0,220244.0,9838.0
1679515486050461,160786.0,220238.0,9836.0
1679515486061461,160799.0,220253.0,9842.0
1679515486071462,160803.0,220208.0,9849.0
1679515486081462,160809.0,220296.0,9858.0
1679515486090462,160812.0,220239.0,9840.0
1679515486100462,160800.0,220290.0,9854.0
1679515486111462,160805.0,220270.0,9837.0
1679515486121461,160840.0,220274.0,9835.0
1679515486130462,160824.0,220299.0,9859.0
1679515486140462,160818.0,220297.0,9857.0
1679515486151461,160813.0,220308.0,9831.0
1679515486161461,160875.0,220286.0,9852.0
1679515486170462,160887.0,220294.0,9848.0
1679515486180462,160865.0,220289.0,9865.0
1679515486191461,160883.0,220278.0,9834.0
1679515486201461,160866.0,220264.0,9851.0
1679515486210461,160877.0,220303.0,9845.0
1679515486220461,160881.0,220284.0,9846.0
1679515486231461,160879.0,220284.0,9847.0
1679515486241461,160903.0,220309.0,9879.0
1679515486251462,160909.0,220379.0,9867.0
1679515486260462,160894.0,220294.0,9874.0
1679515486271462,160920.0,220319.0,9854.0
1679515486280462,160908.0,220323.0,9872.0
1679515486291462,160928.0,220352.0,9850.0
1679515486300462,160962.0,220361.0,9845.0
1679515486311462,160941.0,220332.0,9876.0
1679515486321462,160917.0,220355.0,9862.0
1679515486331462,160828.0,220275.0,9861.0
1679515486342461,160673.0,220113.0,9826.0
1679515486351462,160470.0,219947.0,9833.0
1679515486360462,160157.0,219723.0,9758.0
1679515486371461,159891.0,219505.0,9718.0
1679515486380462,159579.0,219245.0,9652.0
1679515486390462,159302.0,219029.0,9593.0
1679515486400462,159100.0,218854.0,9568.0
1679515486411461,158936.0,218720.0,9543.0
1679515486420462,158860.0,218681.0,9567.0
1679515486431461,158834.0,218676.0,9525.0
1679515486440461,158883.0,218694.0,9542.0
1679515486451461,158913.0,218786.0,9582.0
1679515486460461,159022.0,218882.0,9601.0
1679515486470461,159151.0,218987.0,9631.0
1679515486480461,159284.0,219108.0,9650.0
1679515486491461,159485.0,219169.0,9663.0
1679515486501461,159623.0,219283.0,9678.0
1679515486511461,159753.0,219435.0,9712.0
1679515486520461,159887.0,219479.0,9707.0
1679515486531461,159970.0,219588.0,9732.0
1679515486541461,160063.0,219718.0,9747.0
1679515486550461,160176.0,219713.0,9751.0
1679515486560461,160254.0,219851.0,9769.0
1679515486571461,160329.0,219922.0,9789.0
1679515486581461,160400.0,219990.0,9793.0
1679515486590461,160464.0,220026.0,9808.0
1679515486600461,160528.0,220049.0,9818.0
1679515486611462,160576.0,220085.0,9823.0
1679515486621461,160607.0,220114.0,9799.0
1679515486630462,160586.0,220120.0,9824.0
1679515486640462,160539.0,220080.0,9828.0
1679515486651461,160476.0,220050.0,9807.0
1679515486661461,160456.0,219979.0,9792.0
1679515486670462,160379.0,219882.0,9781.0
1679515486680462,160319.0,219833.0,9767.0
1679515486691461,160238.0,219805.0,9763.0
1679515486701461,160202.0,219755.0,9761.0
1679515486710461,160168.0,219706.0,9758.0
1679515486720461,160127.0,219690.0,9752.0
1679515486731461,160109.0,219731.0,9753.0
1679515486741461,160146.0,219707.0,9754.0
1679515486751461,160156.0,219754.0,9761.0
1679515486760461,160170.0,219841.0,9760.0
1679515486771461,160179.0,219844.0,9769.0
1679515486780461,160226.0,219838.0,9783.0
1679515486791462,160229.0,219902.0,9790.0
1679515486800462,160255.0,219918.0,9788.0
1679515486811462,160362.0,220001.0,9789.0
1679515486820462,160402.0,220013.0,9790.0
1679515486831462,160444.0,220082.0,9798.0
1679515486840462,160443.0,220072.0,9807.0
1679515486851462,160496.0,220062.0,9809.0
1679515486860462,160547.0,220133.0,9820.0
1679515486871461,160567.0,220163.0,9820.0
1679515486880462,160578.0,220135.0,9820.0
1679515486891461,160611.0,220195.0,9830.0
1679515486900462,160634.0,220209.0,9821.0
1679515486911461,160638.0,220179.0,9832.0
1679515486920462,160641.0,220222.0,9831.0
1679515486930462,160656.0,220242.0,9830.0
1679515486940461,160669.0,220241.0,9826.0
1679515486951461,160675.0,220258.0,9838.0
1679515486960461,160688.0,220275.0,9813.0
1679515486970461,160664.0,220252.0,9839.0
1679515486980461,160639.0,220267.0,9842.0
1679515486991461,160684.0,220263.0,9835.0
1679515487001461,160683.0,220270.0,9841.0
1679515487010461,160698.0,220273.0,9844.0
1679515487020461,160703.0,220271.0,9826.0
1679515487031461,160690.0,220279.0,9835.0
1679515487041461,160684.0,220282.0,9849.0
1679515487050461,160668.0,220296.0,9848.0
1679515487060461,160715.0,220258.0,9837.0
1679515487071461,160717.0,220285.0,9853.0
1679515487081461,160710.0,220296.0,9854.0
1679515487090461,160722.0,220293.0,9843.0
1679515487100461,160733.0,220325.0,9858.0
1679515487111461,160742.0,220308.0,9861.0
1679515487121461,160767.0,220247.0,9848.0
1679515487130461,160758.0,220311.0,9860.0
1679515487140461,160782.0,220334.0,9860.0
1679515487151461,160793.0,220350.0,9867.0
1679515487161461,160814.0,220368.0,9867.0
1679515487170462,160821.0,220370.0,9868.0
1679515487180462,160813.0,220366.0,9865.0
1679515487191461,160822.0,220381.0,9873.0
1679515487201461,160834.0,220388.0,9858.0
1679515487210461,160852.0,220380.0,9877.0
1679515487220461,160844.0,220388.0,9868.0
1679515487230461,160860.0,220363.0,9876.0
1679515487241461,160889.0,220391.0,9865.0
1679515487251461,160886.0,220402.0,9876.0
1679515487260461,160914.0,220422.0,9875.0
1679515487271461,160878.0,220379.0,9891.0
1679515487280461,160901.0,220360.0,9866.0
1679515487291461,160898.0,220386.0,9875.0
1679515487300461,160914.0,220377.0,9882.0
1679515487311461,160923.0,220396.0,9885.0
1679515487320461,160911.0,220412.0,9891.0
1679515487331462,160914.0,220400.0,9890.0
1679515487340462,160926.0,220390.0,9866.0
1679515487351462,160929.0,220433.0,9882.0
1679515487360462,160909.0,220466.0,9882.0
1679515487371461,160924.0,220448.0,9891.0
1679515487380462,160912.0,220417.0,9873.0
1679515487391461,160924.0,220415.0,9867.0
1679515487400462,160933.0,220427.0,9879.0
1679515487410462,160917.0,220425.0,9886.0
1679515487420462,160926.0,220428.0,9873.0
1679515487431461,160930.0,220435.0,9872.0
1679515487440461,160946.0,220446.0,9891.0
1679515487451461,160956.0,220437.0,9854.0
1679515487460461,160973.0,220518.0,9873.0
1679515487470461,160980.0,220417.0,9895.0
1679515487480461,160980.0,220417.0,9896.0
1679515487491461,160975.0,220474.0,9892.0
1679515487501461,160985.0,220491.0,9906.0
1679515487510461,160985.0,220463.0,9896.0
1679515487520461,160996.0,220495.0,9896.0
1679515487531461,160985.0,220432.0,9902.0
1679515487541461,160942.0,220395.0,9892.0
1679515487552461,160818.0,220311.0,9864.0
1679515487560461,160637.0,220212.0,9837.0
1679515487571461,160408.0,220020.0,9808.0
1679515487581461,160135.0,219742.0,9756.0
1679515487590461,159844.0,219502.0,9721.0
1679515487600461,159533.0,219291.0,9679.0
1679515487611461,159282.0,219137.0,9649.0
1679515487621461,159107.0,218947.0,9612.0
1679515487630461,158996.0,218909.0,9604.0
1679515487640461,158948.0,218866.0,9594.0
1679515487653461,158963.0,218879.0,9595.0
1679515487660461,159037.0,218911.0,9608.0
1679515487670461,159145.0,219043.0,9616.0
1679515487680461,159271.0,219166.0,9641.0
1679515487691462,159412.0,219238.0,9653.0
1679515487701462,159550.0,219371.0,9677.0
1679515487710462,159690.0,219494.0,9705.0
1679515487720462,159816.0,219590.0,9723.0
1679515487731462,159938.0,219658.0,9743.0
1679515487741462,160042.0,219763.0,9754.0
1679515487750462,160140.0,219870.0,9747.0
1679515487760462,160266.0,219935.0,9746.0
1679515487771462,160353.0,219981.0,9814.0
1679515487780462,160456.0,220081.0,9812.0
1679515487791462,160529.0,220157.0,9833.0
1679515487800462,160602.0,220200.0,9839.0
1679515487811462,160677.0,220240.0,9858.0
1679515487820462,160695.0,220294.0,9856.0
1679515487830462,160697.0,220263.0,9863.0
1679515487840462,160687.0,220248.0,9847.0
1679515487851462,160642.0,220215.0,9852.0
1679515487860462,160560.0,220176.0,9834.0
1679515487871461,160488.0,220077.0,9828.0
1679515487880462,160422.0,220015.0,9806.0
1679515487891461,160353.0,219995.0,9799.0
1679515487900462,160275.0,219960.0,9801.0
1679515487911461,160202.0,219891.0,9781.0
1679515487920462,160155.0,219839.0,9773.0
1679515487930462,160094.0,219845.0,9776.0
1679515487940461,160100.0,219838.0,9774.0
1679515487950461,160088.0,219847.0,9775.0
1679515487960461,160131.0,219864.0,9751.0
1679515487970461,160179.0,219867.0,9785.0
1679515487980461,160184.0,219876.0,9783.0
1679515487991461,160241.0,219917.0,9780.0
1679515488001461,160278.0,219981.0,9792.0
1679515488010461,160296.0,220012.0,9803.0
1679515488020461,160342.0,220010.0,9794.0
1679515488030461,160377.0,220031.0,9783.0
1679515488041461,160414.0,220051.0,9797.0
1679515488050462,160433.0,220103.0,9818.0
1679515488060462,160456.0,220122.0,9818.0
1679515488070462,160491.0,220122.0,9835.0
1679515488081462,160533.0,220144.0,9802.0
1679515488090462,160556.0,220175.0,9832.0
1679515488100462,160567.0,220191.0,9834.0
1679515488110462,160516.0,220206.0,9844.0
1679515488121461,160552.0,220207.0,9845.0
1679515488130462,160570.0,220237.0,9824.0
1679515488140462,160582.0,220262.0,9854.0
1679515488150462,160547.0,220246.0,9844.0
1679515488161461,160575.0,220221.0,9849.0
1679515488170462,160615.0,220212.0,9833.0
1679515488180462,160620.0,220233.0,9842.0
1679515488190461,160599.0,220217.0,9852.0
1679515488201461,160607.0,220203.0,9813.0
1679515488210461,160594.0,220208.0,9831.0
1679515488220461,160596.0,220238.0,9837.0
1679515488230461,160567.0,220210.0,9816.0
1679515488241461,160605.0,220218.0,9810.0
1679515488250461,160551.0,220233.0,9849.0
1679515488260461,160601.0,220281.0,9847.0
1679515488270461,160598.0,220217.0,9852.0
1679515488281461,160570.0,220229.0,9851.0
1679515488290461,160620.0,220268.0,9850.0
1679515488300461,160612.0,220268.0,9841.0
1679515488310461,160583.0,220264.0,9857.0
1679515488321461,160629.0,220285.0,9848.0
1679515488330461,160615.0,220286.0,9862.0
1679515488340461,160619.0,220294.0,9861.0
1679515488350461,160664.0,220311.0,9858.0
1679515488360461,160673.0,220322.0,9853.0
1679515488370461,160695.0,220351.0,9825.0
1679515488380461,160703.0,220320.0,9840.0
1679515488390461,160707.0,220314.0,9834.0
1679515488400461,160724.0,220338.0,9853.0
1679515488411461,160734.0,220354.0,9861.0
1679515488420462,160735.0,220352.0,9864.0
1679515488430462,160714.0,220374.0,9850.0
1679515488440461,160765.0,220389.0,9848.0
1679515488450461,160767.0,220387.0,9851.0
1679515488460461,160780.0,220384.0,9858.0
1679515488470461,160782.0,220405.0,9883.0
1679515488480461,160756.0,220416.0,9889.0
1679515488490461,160753.0,220416.0,9889.0
1679515488501461,160793.0,220419.0,9858.0
1679515488509461,160784.0,220430.0,9849.0
1679515488520461,160827.0,220449.0,9851.0
1679515488530461,160783.0,220429.0,9892.0
1679515488541461,160816.0,220436.0,9878.0
1679515488549461,160780.0,220475.0,9871.0
1679515488560461,160836.0,220464.0,9853.0
1679515488571461,160847.0,220485.0,9866.0
1679515488581461,160817.0,220446.0,9897.0
1679515488589461,160822.0,220460.0,9875.0
1679515488600461,160853.0,220463.0,9870.0
1679515488610461,160802.0,220466.0,9892.0
1679515488621461,160828.0,220466.0,9874.0
1679515488629461,160799.0,220462.0,9865.0
1679515488640461,160839.0,220475.0,9866.0
1679515488650461,160840.0,220476.0,9895.0
1679515488661461,160866.0,220506.0,9891.0
1679515488669461,160875.0,220522.0,9884.0
1679515488680461,160884.0,220520.0,9871.0
1679515488690461,160886.0,220503.0,9866.0
1679515488700461,160875.0,220516.0,9866.0
1679515488710461,160846.0,220481.0,9879.0
1679515488720461,160837.0,220462.0,9839.0
1679515488730461,160750.0,220353.0,9856.0
1679515488740461,160597.0,220276.0,9805.0
1679515488750461,160373.0,220083.0,9784.0
1679515488761461,160117.0,219861.0,9739.0
1679515488771462,159821.0,219618.0,9728.0
1679515488780462,159515.0,219420.0,9690.0
1679515488790462,159243.0,219179.0,9634.0
1679515488800462,158995.0,219011.0,9622.0
1679515488810462,158853.0,218892.0,9607.0
1679515488821462,158827.0,218878.0,9572.0
1679515488830462,158818.0,218825.0,9591.0
1679515488840462,158876.0,218900.0,9612.0
1679515488850462,158981.0,219002.0,9626.0
1679515488861462,159107.0,219061.0,9630.0
1679515488870462,159235.0,219159.0,9653.0
1679515488880462,159348.0,219354.0,9682.0
1679515488890462,159528.0,219476.0,9691.0
1679515488900462,159651.0,219579.0,9714.0
1679515488910462,159738.0,219672.0,9734.0
1679515488920462,159872.0,219748.0,9737.0
1679515488930462,159979.0,219856.0,9759.0
1679515488940461,160063.0,219902.0,9774.0
1679515488950461,160138.0,219978.0,9800.0
1679515488961461,160245.0,220039.0,9812.0
1679515488970461,160359.0,220127.0,9819.0
1679515488980461,160445.0,220210.0,9825.0
1679515488990461,160479.0,220226.0,9842.0
1679515489001461,160515.0,220282.0,9854.0
1679515489010461,160569.0,220271.0,9846.0
1679515489020461,160583.0,220244.0,9851.0
1679515489030461,160558.0,220182.0,9851.0
1679515489041461,160495.0,220184.0,9849.0
1679515489050461,160435.0,220115.0,9840.0
1679515489062461,160368.0,220057.0,9818.0
1679515489070461,160293.0,220033.0,9810.0
1679515489081461,160231.0,220013.0,9801.0
1679515489089461,160161.0,219983.0,9777.0
1679515489100461,160123.0,219946.0,9780.0
1679515489110461,160044.0,219911.0,9785.0
1679515489121461,160034.0,219900.0,9781.0
1679515489129462,160028.0,219887.0,9788.0
1679515489140462,160010.0,219900.0,9783.0
1679515489150462,160067.0,219907.0,9792.0
1679515489161461,160097.0,219934.0,9794.0
1679515489169461,160132.0,219941.0,9790.0
1679515489180461,160172.0,220020.0,9797.0
1679515489190461,160214.0,219981.0,9808.0
1679515489201461,160242.0,220044.0,9803.0
1679515489210461,160269.0,220079.0,9820.0
1679515489220461,160314.0,220123.0,9819.0
1679515489230461,160355.0,220110.0,9825.0
1679515489241461,160394.0,220155.0,9831.0
1679515489250461,160421.0,220199.0,9824.0
1679515489260461,160449.0,220236.0,9838.0
1679515489270461,160462.0,220218.0,9844.0
1679515489280461,160497.0,220291.0,9844.0
1679515489290461,160512.0,220289.0,9835.0
1679515489300461,160511.0,220306.0,9848.0
1679515489310462,160539.0,220332.0,9852.0
1679515489320462,160512.0,220371.0,9853.0
1679515489330462,160549.0,220328.0,9864.0
1679515489340462,160565.0,220299.0,9866.0
1679515489350462,160566.0,220298.0,9853.0
1679515489360462,160543.0,220281.0,9851.0
1679515489370462,160555.0,220344.0,9866.0
1679515489380462,160565.0,220347.0,9853.0
1679515489390462,160576.0,220332.0,9862.0
1679515489400462,160576.0,220367.0,9826.0
1679515489410462,160581.0,220353.0,9822.0
1679515489419462,160574.0,220357.0,9863.0
1679515489430462,160567.0,220383.0,9869.0
1679515489440461,160573.0,220400.0,9852.0
1679515489450461,160583.0,220388.0,9861.0
1679515489460461,160576.0,220406.0,9861.0
1679515489470461,160601.0,220425.0,9859.0
1679515489479462,160582.0,220419.0,9847.0
1679515489490461,160609.0,220416.0,9833.0
1679515489500461,160625.0,220422.0,9858.0
1679515489510461,160607.0,220437.0,9884.0
1679515489520461,160638.0,220395.0,9873.0
1679515489530461,160650.0,220431.0,9874.0
1679515489540461,160673.0,220484.0,9873.0
1679515489550461,160690.0,220469.0,9887.0
1679515489560461,160680.0,220477.0,9884.0
1679515489570461,160699.0,220485.0,9885.0
1679515489580461,160685.0,220495.0,9891.0
1679515489590461,160722.0,220476.0,9892.0
1679515489600461,160731.0,220478.0,9890.0
1679515489610461,160737.0,220493.0,9885.0
1679515489620461,160719.0,220517.0,9892.0
1679515489630461,160743.0,220543.0,9895.0
1679515489639461,160748.0,220539.0,9898.0
1679515489650461,160757.0,220550.0,9898.0
1679515489660461,160779.0,220573.0,9892.0
1679515489670462,160762.0,220541.0,9911.0
1679515489679462,160712.0,220571.0,9897.0
1679515489690461,160783.0,220570.0,9902.0
1679515489700461,160795.0,220504.0,9899.0
1679515489710461,160799.0,220521.0,9897.0
1679515489720461,160797.0,220526.0,9905.0
1679515489730461,160831.0,220574.0,9900.0
1679515489740461,160829.0,220571.0,9905.0
1679515489750461,160836.0,220601.0,9915.0
1679515489759462,160826.0,220575.0,9903.0
1679515489770461,160824.0,220578.0,9906.0
1679515489780461,160825.0,220550.0,9901.0
1679515489791461,160814.0,220595.0,9907.0
1679515489799461,160817.0,220558.0,9916.0
1679515489810461,160821.0,220545.0,9908.0
1679515489820461,160820.0,220562.0,9902.0
1679515489831461,160802.0,220567.0,9906.0
1679515489839461,160809.0,220552.0,9913.0
1679515489850462,160822.0,220550.0,9910.0
1679515489860462,160822.0,220509.0,9912.0
1679515489871461,160840.0,220576.0,9905.0
1679515489879461,160847.0,220551.0,9914.0
1679515489890461,160850.0,220589.0,9918.0
1679515489900461,160851.0,220534.0,9915.0
1679515489910461,160854.0,220611.0,9911.0
1679515489919461,160842.0,220611.0,9906.0
1679515489929461,160848.0,220585.0,9914.0
1679515489940461,160839.0,220576.0,9907.0
1679515489950461,160768.0,220528.0,9899.0
1679515489960461,160623.0,220418.0,9878.0
1679515489970461,160428.0,220271.0,9847.0
1679515489980461,160199.0,220050.0,9803.0
1679515489990461,159855.0,219801.0,9749.0
1679515490000461,159546.0,219499.0,9709.0
1679515490010461,159224.0,219231.0,9666.0
1679515490020461,158965.0,219044.0,9631.0
1679515490030462,158800.0,218900.0,9616.0
1679515490040462,158679.0,218800.0,9581.0
1679515490050462,158658.0,218831.0,9601.0
1679515490060462,158703.0,218888.0,9593.0
1679515490070462,158772.0,218939.0,9604.0
1679515490080462,158877.0,219129.0,9625.0
1679515490089462,158992.0,219179.0,9647.0
1679515490100462,159194.0,219298.0,9636.0
1679515490110462,159333.0,219445.0,9674.0
1679515490120462,159439.0,219562.0,9714.0
1679515490129462,159594.0,219651.0,9736.0
1679515490140462,159762.0,219776.0,9727.0
1679515490149462,159817.0,219859.0,9773.0
1679515490160462,159912.0,219924.0,9786.0
1679515490170462,160011.0,219981.0,9780.0
1679515490180462,160096.0,220118.0,9799.0
1679515490189462,160213.0,220114.0,9804.0
1679515490200461,160279.0,220175.0,9827.0
1679515490210461,160360.0,220248.0,9844.0
1679515490219462,160389.0,220286.0,9847.0
1679515490229462,160435.0,220289.0,9835.0
1679515490240461,160446.0,220328.0,9839.0
1679515490251461,160440.0,220282.0,9853.0
1679515490260461,160394.0,220279.0,9850.0
1679515490271461,160276.0,220224.0,9837.0
1679515490280461,160232.0,220168.0,9854.0
1679515490290461,160175.0,220082.0,9806.0
1679515490299461,160092.0,220032.0,9760.0
1679515490309461,160004.0,219950.0,9759.0
1679515490320461,159942.0,219891.0,9739.0
1679515490331461,159880.0,219876.0,9762.0
1679515490339461,159855.0,219831.0,9760.0
1679515490350461,159814.0,219803.0,9771.0
1679515490360461,159812.0,219813.0,9760.0
1679515490372461,159807.0,219827.0,9765.0
1679515490379461,159838.0,219852.0,9766.0
1679515490390462,159868.0,219899.0,9774.0
1679515490400462,159915.0,219928.0,9775.0
1679515490410462,159954.0,219925.0,9776.0
1679515490419462,160013.0,219945.0,9790.0
1679515490430462,160051.0,219994.0,9791.0
1679515490440461,160078.0,220045.0,9800.0
1679515490450461,160128.0,220102.0,9816.0
1679515490460461,160186.0,220093.0,9821.0
1679515490469462,160213.0,220135.0,9812.0
1679515490479462,160258.0,220225.0,9821.0
1679515490490461,160286.0,220185.0,9822.0
1679515490500461,160303.0,220205.0,9826.0
1679515490510461,160302.0,220226.0,9834.0
1679515490519461,160328.0,220265.0,9846.0
1679515490530461,160335.0,220305.0,9835.0
1679515490540461,160333.0,220310.0,9842.0
1679515490549461,160336.0,220305.0,9838.0
1679515490559461,160310.0,220291.0,9829.0
1679515490570462,160320.0,220291.0,9845.0
1679515490580462,160306.0,220263.0,9838.0
1679515490590462,160299.0,220259.0,9835.0
1679515490599462,160291.0,220212.0,9828.0
1679515490610462,160279.0,220281.0,9829.0
1679515490620462,160265.0,220246.0,9827.0
1679515490630462,160248.0,220206.0,9840.0
1679515490639462,160248.0,220167.0,9832.0
1679515490650462,160258.0,220154.0,9834.0
1679515490660462,160244.0,220124.0,9813.0
1679515490669462,160226.0,220176.0,9832.0
1679515490679462,160231.0,220201.0,9823.0
1679515490690461,160232.0,220222.0,9822.0
1679515490700461,160237.0,220225.0,9826.0
1679515490710461,160241.0,220214.0,9830.0
1679515490719462,160253.0,220192.0,9820.0
1679515490730461,160263.0,220196.0,9838.0
1679515490740461,160275.0,220259.0,9832.0
1679515490750461,160277.0,220221.0,9831.0
1679515490759462,160294.0,220254.0,9853.0
1679515490770461,160305.0,220254.0,9840.0
1679515490779461,160329.0,220220.0,9849.0
1679515490790461,160336.0,220293.0,9845.0
1679515490799461,160352.0,220313.0,9845.0
1679515490810461,160378.0,220302.0,9857.0
1679515490820461,160391.0,220326.0,9857.0
1679515490830461,160389.0,220320.0,9865.0
1679515490839461,160418.0,220289.0,9863.0
1679515490850461,160424.0,220318.0,9857.0
1679515490859461,160429.0,220346.0,9858.0
1679515490870461,160448.0,220319.0,9868.0
1679515490879461,160453.0,220343.0,9858.0
1679515490890461,160431.0,220398.0,9868.0
1679515490899461,160476.0,220397.0,9874.0
1679515490910461,160478.0,220411.0,9863.0
1679515490919461,160457.0,220403.0,9868.0
1679515490930462,160486.0,220420.0,9873.0
1679515490939462,160494.0,220405.0,9860.0
1679515490950461,160472.0,220327.0,9863.0
1679515490960461,160499.0,220395.0,9868.0
1679515490970461,160470.0,220371.0,9872.0
1679515490979462,160475.0,220341.0,9878.0
1679515490990461,160483.0,220349.0,9870.0
1679515491000461,160474.0,220318.0,9874.0
1679515491010461,160469.0,220357.0,9869.0
1679515491019461,160444.0,220332.0,9867.0
1679515491030461,160452.0,220319.0,9870.0
1679515491040461,160466.0,220335.0,9863.0
1679515491050461,160467.0,220387.0,9868.0
1679515491059461,160480.0,220344.0,9866.0
1679515491070461,160486.0,220335.0,9869.0
1679515491080461,160490.0,220385.0,9876.0
1679515491089461,160508.0,220422.0,9880.0
1679515491099461,160504.0,220417.0,9866.0
1679515491110462,160512.0,220450.0,9884.0
1679515491120462,160490.0,220429.0,9886.0
1679515491129462,160523.0,220444.0,9884.0
1679515491139462,160546.0,220387.0,9890.0
1679515491150462,160530.0,220398.0,9882.0
1679515491160462,160492.0,220397.0,9866.0
1679515491169462,160405.0,220325.0,9856.0
1679515491179462,160262.0,220211.0,9830.0
1679515491190461,160053.0,220038.0,9758.0
1679515491199462,159743.0,219826.0,9763.0
1679515491210461,159463.0,219586.0,9727.0
1679515491219462,159175.0,219320.0,9673.0
1679515491230461,158911.0,219139.0,9628.0
1679515491239462,158674.0,218952.0,9615.0
1679515491250461,158554.0,218852.0,9597.0
1679515491259462,158480.0,218802.0,9591.0
1679515491269461,158466.0,218832.0,9592.0
1679515491280461,158499.0,218854.0,9608.0
1679515491290462,158650.0,218988.0,9602.0
1679515491299462,158791.0,219061.0,9585.0
1679515491310462,158901.0,219185.0,9655.0
1679515491319462,159137.0,219277.0,9667.0
1679515491330462,159234.0,219436.0,9696.0
1679515491339462,159373.0,219551.0,9698.0
1679515491350462,159507.0,219639.0,9726.0
1679515491359462,159633.0,219736.0,9744.0
1679515491370462,159704.0,219807.0,9766.0
1679515491381461,159831.0,219909.0,9759.0
1679515491390462,159921.0,219987.0,9804.0
1679515491399462,160019.0,220069.0,9809.0
1679515491410462,160113.0,220075.0,9818.0
1679515491419462,160168.0,220145.0,9826.0
1679515491429462,160240.0,220195.0,9834.0
1679515491439462,160280.0,220233.0,9842.0
1679515491450461,160299.0,220271.0,9838.0
1679515491460461,160276.0,220260.0,9831.0
1679515491469462,160241.0,220231.0,9829.0
1679515491481462,160177.0,220176.0,9820.0
1679515491490462,160118.0,220100.0,9844.0
1679515491500462,160033.0,220024.0,9793.0
1679515491509462,159946.0,219972.0,9804.0
1679515491519462,159879.0,219972.0,9794.0
1679515491530462,159838.0,219908.0,9770.0
1679515491540462,159800.0,219864.0,9773.0
1679515491549462,159767.0,219836.0,9770.0
1679515491559462,159777.0,219837.0,9766.0
1679515491570462,159765.0,219841.0,9772.0
1679515491582462,159798.0,219875.0,9773.0
1679515491589462,159825.0,219888.0,9756.0
1679515491599462,159839.0,219893.0,9787.0
1679515491610462,159886.0,219904.0,9782.0
1679515491620462,159912.0,219932.0,9796.0
1679515491629462,159953.0,219976.0,9805.0
1679515491639462,159985.0,220049.0,9800.0
1679515491650462,160027.0,220107.0,9818.0
1679515491660462,160068.0,220117.0,9826.0
1679515491669462,160096.0,220074.0,9831.0
1679515491679462,160136.0,220094.0,9827.0
1679515491690461,160158.0,220132.0,9827.0
1679515491700461,160147.0,220188.0,9843.0
1679515491710461,160209.0,220209.0,9831.0
1679515491719462,160212.0,220188.0,9835.0
1679515491730461,160196.0,220192.0,9834.0
1679515491739462,160218.0,220187.0,9833.0
1679515491750461,160221.0,220168.0,9846.0
1679515491759462,160237.0,220149.0,9828.0
1679515491770461,160209.0,220203.0,9836.0
1679515491779461,160226.0,220176.0,9838.0
1679515491790461,160245.0,220158.0,9842.0
1679515491799461,160225.0,220159.0,9831.0
1679515491809461,160226.0,220208.0,9848.0
1679515491819461,160248.0,220239.0,9839.0
1679515491830462,160264.0,220202.0,9844.0
1679515491839462,160269.0,220223.0,9849.0
1679515491850462,160265.0,220234.0,9858.0
1679515491859462,160310.0,220253.0,9845.0
1679515491870462,160261.0,220244.0,9851.0
1679515491879462,160281.0,220247.0,9855.0
1679515491890462,160279.0,220301.0,9858.0
1679515491899462,160316.0,220310.0,9849.0
1679515491910462,160310.0,220290.0,9858.0
1679515491919462,160318.0,220307.0,9862.0
1679515491929462,160329.0,220279.0,9866.0
1679515491939462,160336.0,220259.0,9859.0
1679515491950461,160338.0,220271.0,9864.0
1679515491960461,160346.0,220282.0,9847.0
1679515491969462,160357.0,220297.0,9866.0
1679515491979462,160367.0,220273.0,9860.0
1679515491990461,160361.0,220287.0,9857.0
1679515491999462,160343.0,220343.0,9867.0
1679515492009462,160327.0,220354.0,9863.0
1679515492019461,160325.0,220339.0,9867.0
1679515492030461,160365.0,220367.0,9858.0
1679515492039461,160372.0,220359.0,9859.0
1679515492049461,160383.0,220355.0,9860.0
1679515492059461,160353.0,220358.0,9871.0
1679515492070461,160382.0,220338.0,9881.0
1679515492079461,160406.0,220292.0,9871.0
1679515492089461,160407.0,220301.0,9868.0
1679515492099461,160373.0,220382.0,9875.0
1679515492109461,160379.0,220370.0,9878.0
1679515492119461,160376.0,220362.0,9871.0
1679515492129461,160399.0,220387.0,9884.0
1679515492139461,160410.0,220365.0,9884.0
1679515492149461,160411.0,220388.0,9856.0
1679515492159461,160402.0,220414.0,9878.0
1679515492169461,160413.0,220414.0,9881.0
1679515492179461,160433.0,220395.0,9879.0
1679515492189462,160402.0,220418.0,9877.0
1679515492199462,160461.0,220456.0,9869.0
1679515492210461,160450.0,220402.0,9862.0
1679515492219462,160452.0,220442.0,9873.0
1679515492229462,160457.0,220437.0,9878.0
1679515492239462,160432.0,220434.0,9892.0
1679515492250461,160455.0,220412.0,9885.0
1679515492259462,160465.0,220406.0,9880.0
1679515492270461,160480.0,220384.0,9881.0
1679515492279461,160475.0,220427.0,9886.0
1679515492290461,160482.0,220428.0,9889.0
1679515492299461,160548.0,220467.0,9892.0
1679515492309461,160518.0,220473.0,9890.0
1679515492319461,160524.0,220472.0,9890.0
1679515492330461,160510.0,220500.0,9902.0
1679515492339461,160535.0,220507.0,9895.0
1679515492349461,160510.0,220491.0,9895.0
1679515492359461,160467.0,220449.0,9885.0
1679515492370462,160420.0,220390.0,9865.0
1679515492379462,160220.0,220233.0,9854.0
1679515492390462,160013.0,220064.0,9809.0
1679515492399462,159722.0,219825.0,9759.0
1679515492410462,159369.0,219523.0,9697.0
1679515492418461,159060.0,219292.0,9646.0
1679515492429461,158753.0,219066.0,9622.0
1679515492439461,158524.0,218873.0,9583.0
1679515492450461,158344.0,218765.0,9566.0
1679515492459461,158301.0,218724.0,9558.0
1679515492469461,158283.0,218725.0,9554.0
1679515492479461,158298.0,218762.0,9574.0
1679515492491461,158442.0,218863.0,9583.0
1679515492499461,158550.0,218962.0,9594.0
1679515492509461,158713.0,219064.0,9598.0
1679515492519461,158867.0,219187.0,9640.0
1679515492529461,159015.0,219329.0,9658.0
1679515492539461,159148.0,219430.0,9691.0
1679515492549461,159285.0,219506.0,9691.0
1679515492559461,159405.0,219616.0,9725.0
1679515492569461,159513.0,219721.0,9688.0
1679515492579461,159583.0,219775.0,9727.0
1679515492589461,159679.0,219852.0,9735.0
1679515492599461,159760.0,219904.0,9769.0
1679515492609461,159785.0,219978.0,9797.0
1679515492619461,159892.0,220014.0,9792.0
1679515492629461,159969.0,220088.0,9777.0
1679515492639461,160007.0,220115.0,9824.0
1679515492649461,160086.0,220160.0,9791.0
1679515492659461,160101.0,220175.0,9790.0
1679515492669461,160067.0,220181.0,9834.0
1679515492678461,160054.0,220167.0,9813.0
1679515492689461,160033.0,220122.0,9775.0
1679515492699461,159929.0,220104.0,9808.0
1679515492710461,159881.0,220017.0,9812.0
1679515492718461,159813.0,219993.0,9778.0
1679515492729462,159750.0,219944.0,9769.0
1679515492739462,159713.0,219899.0,9746.0
1679515492750461,159649.0,219865.0,9776.0
1679515492759462,159675.0,219839.0,9768.0
1679515492769461,159629.0,219833.0,9758.0
1679515492779461,159609.0,219833.0,9753.0
1679515492789461,159637.0,219841.0,9737.0
1679515492799461,159673.0,219837.0,9737.0
1679515492809461,159691.0,219841.0,9780.0
1679515492819461,159712.0,219890.0,9779.0
1679515492830461,159750.0,219902.0,9786.0
1679515492839461,159773.0,219955.0,9773.0
1679515492849461,159794.0,219976.0,9786.0
1679515492859461,159852.0,220026.0,9790.0
1679515492870461,159882.0,220049.0,9816.0
1679515492878461,159919.0,220018.0,9807.0
1679515492889461,159961.0,220076.0,9809.0
1679515492899461,159991.0,220135.0,9822.0
1679515492910462,159968.0,220161.0,9826.0
1679515492918461,159999.0,220150.0,9830.0
1679515492929461,160056.0,220207.0,9820.0
1679515492939461,160060.0,220192.0,9827.0
1679515492950461,160088.0,220175.0,9833.0
1679515492960461,160108.0,220161.0,9836.0
1679515492968461,160070.0,220249.0,9839.0
1679515492979461,160126.0,220262.0,9806.0
1679515492989461,160141.0,220275.0,9808.0
1679515492999461,160162.0,220267.0,9817.0
1679515493009461,160184.0,220287.0,9846.0
1679515493019461,160191.0,220315.0,9847.0
1679515493030461,160199.0,220321.0,9860.0
1679515493039461,160221.0,220282.0,9850.0
1679515493049461,160227.0,220299.0,9856.0
1679515493059461,160252.0,220317.0,9858.0
1679515493069461,160257.0,220352.0,9852.0
1679515493079461,160264.0,220365.0,9847.0
1679515493089461,160263.0,220334.0,9865.0
1679515493099461,160283.0,220379.0,9847.0
1679515493110461,160291.0,220390.0,9860.0
1679515493119461,160312.0,220411.0,9866.0
1679515493129461,160323.0,220415.0,9870.0
1679515493139461,160264.0,220380.0,9855.0
1679515493149461,160226.0,220389.0,9864.0
1679515493159461,160291.0,220391.0,9857.0
1679515493168461,160303.0,220426.0,9840.0
1679515493179461,160304.0,220427.0,9871.0
1679515493189461,160287.0,220449.0,9864.0
1679515493199461,160361.0,220497.0,9828.0
1679515493209461,160343.0,220430.0,9858.0
1679515493219461,160346.0,220408.0,9866.0
1679515493229461,160358.0,220462.0,9888.0
1679515493239461,160380.0,220478.0,9871.0
1679515493250461,160370.0,220464.0,9883.0
1679515493259461,160396.0,220462.0,9890.0
1679515493269461,160390.0,220479.0,9887.0
1679515493279461,160405.0,220445.0,9888.0
1679515493289461,160387.0,220473.0,9882.0
1679515493298462,160387.0,220478.0,9854.0
1679515493309461,160367.0,220518.0,9875.0
1679515493319461,160336.0,220464.0,9863.0
1679515493329461,160328.0,220491.0,9872.0
1679515493339461,160352.0,220524.0,9888.0
1679515493348461,160363.0,220508.0,9885.0
1679515493359461,160380.0,220509.0,9891.0
1679515493369461,160291.0,220442.0,9872.0
1679515493379461,160305.0,220437.0,9855.0
1679515493388461,160325.0,220487.0,9880.0
1679515493399461,160369.0,220500.0,9879.0
1679515493410461,160421.0,220545.0,9869.0
1679515493418461,160458.0,220575.0,9883.0
1679515493429461,160450.0,220519.0,9891.0
1679515493439461,160422.0,220493.0,9879.0
1679515493450461,160387.0,220488.0,9882.0
1679515493459462,160361.0,220441.0,9867.0
1679515493468462,160363.0,220436.0,9853.0
1679515493479462,160352.0,220450.0,9857.0
1679515493490461,160371.0,220452.0,9865.0
1679515493499462,160378.0,220491.0,9875.0
1679515493508462,160469.0,220519.0,9870.0
1679515493519461,160443.0,220523.0,9853.0
1679515493529461,160478.0,220557.0,9859.0
1679515493539461,160533.0,220585.0,9880.0
1679515493549461,160561.0,220590.0,9898.0
1679515493559461,160576.0,220623.0,9909.0
1679515493569461,160589.0,220630.0,9914.0
1679515493579461,160563.0,220593.0,9908.0
1679515493588462,160453.0,220511.0,9893.0
1679515493599461,160300.0,220373.0,9859.0
1679515493609461,160047.0,220199.0,9796.0
1679515493619461,159752.0,219956.0,9769.0
1679515493629462,159470.0,219731.0,9751.0
1679515493639462,159195.0,219518.0,9697.0
1679515493649462,158925.0,219243.0,9665.0
1679515493659462,158736.0,219124.0,9627.0
1679515493669462,158546.0,218997.0,9614.0
1679515493679462,158489.0,218932.0,9603.0
1679515493689462,158482.0,218962.0,9602.0
1679515493699462,158557.0,219042.0,9613.0
1679515493709462,158653.0,219151.0,9617.0
1679515493719462,158822.0,219252.0,9614.0
1679515493728462,158992.0,219417.0,9673.0
1679515493739462,159181.0,219526.0,9699.0
1679515493750461,159325.0,219643.0,9695.0
1679515493758461,159476.0,219798.0,9745.0
1679515493768461,159586.0,219883.0,9767.0
1679515493779461,159694.0,219957.0,9764.0
1679515493790461,159750.0,220009.0,9769.0
1679515493800461,159832.0,220092.0,9791.0
1679515493809461,159900.0,220129.0,9814.0
1679515493819461,159980.0,220185.0,9809.0
1679515493829461,160042.0,220246.0,9829.0
1679515493839461,160061.0,220339.0,9848.0
1679515493848461,160112.0,220375.0,9831.0
1679515493859461,160198.0,220419.0,9810.0
1679515493869461,160166.0,220360.0,9846.0
1679515493879461,160133.0,220400.0,9845.0
1679515493888461,160066.0,220325.0,9826.0
1679515493901461,159965.0,220267.0,9828.0
1679515493909461,159869.0,220212.0,9808.0
1679515493918461,159711.0,220125.0,9781.0
1679515493928461,159630.0,220075.0,9756.0
1679515493939461,159578.0,220031.0,9709.0
1679515493949461,159500.0,219962.0,9735.0
1679515493959461,159435.0,219953.0,9701.0
1679515493968461,159417.0,219915.0,9729.0
1679515493979461,159425.0,219905.0,9742.0
1679515493989462,159409.0,219973.0,9714.0
1679515493999462,159461.0,219957.0,9709.0
1679515494008462,159422.0,219981.0,9754.0
1679515494019461,159481.0,220008.0,9760.0
1679515494029461,159523.0,220049.0,9742.0
1679515494040461,159588.0,220086.0,9726.0
1679515494048461,159600.0,220054.0,9770.0
1679515494059461,159625.0,220088.0,9759.0
1679515494069461,159668.0,220108.0,9783.0
1679515494079461,159725.0,220154.0,9778.0
1679515494088461,159737.0,220191.0,9787.0
1679515494099461,159800.0,220253.0,9796.0
1679515494109461,159837.0,220232.0,9806.0
1679515494119461,159862.0,220295.0,9803.0
1679515494128461,159859.0,220295.0,9809.0
1679515494139461,159858.0,220312.0,9811.0
1679515494148461,159833.0,220289.0,9812.0
1679515494159461,159890.0,220316.0,9788.0
1679515494168462,159861.0,220321.0,9816.0
1679515494179462,159905.0,220352.0,9801.0
1679515494188462,159914.0,220366.0,9821.0
1679515494199462,159935.0,220347.0,9818.0
1679515494209462,159904.0,220345.0,9823.0
1679515494218462,159941.0,220348.0,9789.0
1679515494228462,159916.0,220313.0,9793.0
1679515494239462,159914.0,220293.0,9804.0
1679515494249462,159903.0,220303.0,9814.0
1679515494258462,159851.0,220310.0,9817.0
1679515494268462,159837.0,220272.0,9796.0
1679515494279461,159846.0,220290.0,9768.0
1679515494289461,159777.0,220299.0,9813.0
1679515494298462,159835.0,220272.0,9801.0
1679515494309461,159798.0,220268.0,9781.0
1679515494319461,159786.0,220246.0,9801.0
1679515494329461,159781.0,220237.0,9800.0
1679515494338462,159784.0,220223.0,9796.0
1679515494349462,159768.0,220218.0,9798.0
1679515494359462,159774.0,220179.0,9799.0
1679515494369462,159771.0,220240.0,9795.0
1679515494378462,159797.0,220253.0,9797.0
1679515494389462,159778.0,220236.0,9808.0
1679515494399462,159779.0,220250.0,9797.0
1679515494409462,159799.0,220254.0,9788.0
1679515494418462,159761.0,220230.0,9802.0
1679515494429462,159810.0,220220.0,9792.0
1679515494439462,159807.0,220277.0,9800.0
1679515494449462,159823.0,220295.0,9811.0
1679515494459462,159842.0,220259.0,9803.0
1679515494469462,159867.0,220285.0,9814.0
1679515494478462,159869.0,220321.0,9811.0
1679515494489462,159907.0,220289.0,9819.0
1679515494499462,159929.0,220343.0,9817.0
1679515494509462,159923.0,220339.0,9828.0
1679515494518462,159956.0,220377.0,9828.0
1679515494529461,160008.0,220426.0,9829.0
1679515494539461,160085.0,220454.0,9850.0
1679515494549461,160122.0,220423.0,9860.0
1679515494558462,160156.0,220446.0,9866.0
1679515494569461,160190.0,220485.0,9877.0
1679515494579461,160171.0,220472.0,9856.0
1679515494588462,160144.0,220517.0,9857.0
1679515494598461,160149.0,220524.0,9864.0
1679515494609461,160137.0,220553.0,9863.0
1679515494619461,160161.0,220516.0,9832.0
1679515494628461,160137.0,220496.0,9813.0
1679515494638461,160082.0,220463.0,9817.0
1679515494649461,160029.0,220464.0,9822.0
1679515494658461,160065.0,220451.0,9820.0
1679515494668461,160101.0,220468.0,9813.0
1679515494678461,160101.0,220490.0,9853.0
1679515494689461,160163.0,220557.0,9831.0
1679515494698461,160220.0,220562.0,9851.0
1679515494709462,160209.0,220585.0,9861.0
1679515494718462,160224.0,220622.0,9873.0
1679515494729462,160204.0,220577.0,9837.0
1679515494738462,160158.0,220538.0,9826.0
1679515494749462,160066.0,220471.0,9828.0
1679515494758462,159950.0,220385.0,9827.0
1679515494769461,159771.0,220234.0,9809.0
1679515494778462,159588.0,220081.0,9786.0
1679515494789461,159371.0,219908.0,9749.0
1679515494798462,159135.0,219702.0,9712.0
1679515494809461,158917.0,219534.0,9674.0
1679515494818462,158742.0,219394.0,9652.0
1679515494829461,158607.0,219310.0,9651.0
1679515494838462,158572.0,219282.0,9646.0
1679515494848461,158646.0,219311.0,9636.0
1679515494858461,158741.0,219386.0,9623.0
1679515494869461,158860.0,219449.0,9642.0
1679515494878461,159015.0,219589.0,9688.0
1679515494888461,159174.0,219702.0,9682.0
1679515494898461,159328.0,219810.0,9734.0
1679515494909461,159452.0,219942.0,9775.0
1679515494918461,159575.0,220082.0,9775.0
1679515494928461,159770.0,220155.0,9756.0
1679515494938461,159894.0,220233.0,9806.0
1679515494949461,159973.0,220271.0,9846.0
1679515494959461,160087.0,220408.0,9847.0
1679515494969461,160171.0,220484.0,9851.0
1679515494978461,160250.0,220460.0,9861.0
1679515494989461,160305.0,220511.0,9882.0
1679515494999461,160356.0,220574.0,9883.0
1679515495010461,160369.0,220576.0,9886.0
1679515495018461,160383.0,220623.0,9893.0
1679515495029461,160336.0,220598.0,9894.0
1679515495039461,160287.0,220614.0,9888.0
1679515495048461,160273.0,220583.0,9854.0
1679515495058461,160225.0,220559.0,9834.0
1679515495069461,160144.0,220530.0,9825.0
1679515495079461,160076.0,220438.0,9838.0
1679515495088462,159969.0,220403.0,9843.0
1679515495098461,159916.0,220345.0,9834.0
1679515495109461,159840.0,220319.0,9823.0
1679515495119461,159824.0,220291.0,9794.0
1679515495128461,159820.0,220316.0,9816.0
1679515495138461,159792.0,220305.0,9823.0
1679515495149461,159808.0,220323.0,9831.0
1679515495158461,159820.0,220378.0,9831.0
1679515495168461,159865.0,220390.0,9839.0
1679515495178461,159916.0,220411.0,9844.0
1679515495189461,159969.0,220457.0,9837.0
1679515495198461,160035.0,220506.0,9833.0
1679515495209461,160070.0,220490.0,9814.0
1679515495219461,160041.0,220531.0,9862.0
1679515495228461,160100.0,220526.0,9866.0
1679515495239461,160133.0,220556.0,9869.0
1679515495249462,160193.0,220630.0,9884.0
1679515495258462,160271.0,220653.0,9892.0
1679515495269461,160340.0,220690.0,9871.0
1679515495278462,160348.0,220743.0,9898.0
1679515495289461,160324.0,220739.0,9908.0
1679515495298462,160290.0,220731.0,9898.0
1679515495309461,160322.0,220717.0,9899.0
1679515495318462,160352.0,220691.0,9896.0
1679515495329461,160366.0,220765.0,9891.0
1679515495338462,160391.0,220775.0,9902.0
1679515495348461,160378.0,220790.0,9920.0
1679515495358461,160343.0,220780.0,9909.0
1679515495369461,160340.0,220767.0,9907.0
1679515495378461,160329.0,220754.0,9909.0
1679515495388461,160329.0,220735.0,9877.0
1679515495398461,160301.0,220753.0,9899.0
1679515495409461,160316.0,220716.0,9895.0
1679515495418461,160322.0,220720.0,9881.0
1679515495428462,160325.0,220707.0,9892.0
1679515495438462,160296.0,220722.0,9903.0
1679515495449462,160305.0,220702.0,9867.0
1679515495459462,160283.0,220678.0,9895.0
1679515495468462,160276.0,220688.0,9884.0
1679515495478462,160279.0,220691.0,9891.0
1679515495489462,160255.0,220730.0,9881.0
1679515495499462,160224.0,220701.0,9894.0
1679515495508462,160237.0,220703.0,9897.0
1679515495518462,160260.0,220720.0,9903.0
1679515495529461,160302.0,220700.0,9864.0
1679515495539461,160317.0,220707.0,9892.0
1679515495548462,160322.0,220725.0,9898.0
1679515495559461,160346.0,220742.0,9901.0
1679515495568462,160332.0,220750.0,9895.0
1679515495579461,160366.0,220764.0,9907.0
1679515495588462,160371.0,220768.0,9911.0
1679515495599461,160373.0,220754.0,9915.0
1679515495608461,160408.0,220834.0,9921.0
1679515495618461,160399.0,220809.0,9916.0
1679515495627462,160423.0,220794.0,9923.0
1679515495638461,160429.0,220846.0,9924.0
1679515495647462,160469.0,220848.0,9931.0
1679515495657462,160479.0,220845.0,9919.0
1679515495667461,160493.0,220870.0,9928.0
1679515495677461,160485.0,220882.0,9935.0
1679515495688461,160460.0,220894.0,9935.0
1679515495697461,160500.0,220907.0,9917.0
1679515495708461,160485.0,220891.0,9930.0
1679515495717461,160470.0,220905.0,9933.0
1679515495727461,160495.0,220877.0,9916.0
1679515495738461,160505.0,220865.0,9926.0
1679515495748461,160501.0,220852.0,9929.0
1679515495757461,160498.0,220865.0,9928.0
1679515495767461,160486.0,220881.0,9931.0
1679515495777461,160471.0,220865.0,9937.0
1679515495789461,160493.0,220869.0,9911.0
1679515495798462,160473.0,220848.0,9929.0
1679515495808462,160472.0,220858.0,9894.0
1679515495819461,160496.0,220876.0,9893.0
1679515495829461,160502.0,220794.0,9934.0
1679515495838462,160471.0,220867.0,9927.0
1679515495848461,160460.0,220860.0,9927.0
1679515495858461,160412.0,220810.0,9898.0
1679515495869461,160276.0,220722.0,9890.0
1679515495878461,160078.0,220551.0,9861.0
1679515495888461,159834.0,220342.0,9813.0
1679515495898461,159492.0,220096.0,9776.0
1679515495909461,159198.0,219836.0,9736.0
1679515495918461,158884.0,219592.0,9674.0
1679515495928461,158634.0,219337.0,9622.0
1679515495938461,158436.0,219239.0,9589.0
1679515495949461,158345.0,219131.0,9580.0
1679515495958461,158303.0,219150.0,9584.0
1679515495968462,158370.0,219175.0,9577.0
1679515495978462,158455.0,219238.0,9624.0
1679515495989462,158555.0,219377.0,9635.0
1679515495998462,158734.0,219495.0,9658.0
1679515496008462,158892.0,219643.0,9662.0
1679515496018462,159094.0,219812.0,9700.0
1679515496029461,159270.0,219935.0,9700.0
1679515496038462,159401.0,220029.0,9736.0
1679515496048462,159538.0,220128.0,9767.0
1679515496058462,159613.0,220225.0,9801.0
1679515496069461,159702.0,220300.0,9817.0
1679515496079461,159775.0,220374.0,9824.0
1679515496088462,159915.0,220385.0,9830.0
1679515496098461,160003.0,220465.0,9844.0
1679515496109461,160057.0,220558.0,9853.0
1679515496118461,160142.0,220599.0,9875.0
1679515496128461,160189.0,220667.0,9836.0
1679515496138461,160203.0,220674.0,9885.0
1679515496148461,160214.0,220689.0,9864.0
1679515496158461,160236.0,220687.0,9844.0
1679515496168461,160177.0,220670.0,9875.0
1679515496178461,160105.0,220625.0,9872.0
1679515496188461,160063.0,220571.0,9842.0
1679515496198461,160013.0,220506.0,9813.0
1679515496209461,159927.0,220423.0,9837.0
1679515496219461,159872.0,220421.0,9832.0
1679515496228461,159810.0,220345.0,9816.0
1679515496238461,159687.0,220296.0,9812.0
1679515496249461,159675.0,220287.0,9795.0
1679515496258461,159680.0,220263.0,9776.0
1679515496268461,159686.0,220261.0,9778.0
1679515496278461,159699.0,220307.0,9785.0
1679515496289461,159734.0,220328.0,9793.0
1679515496297461,159756.0,220340.0,9795.0
1679515496308461,159808.0,220370.0,9792.0
1679515496319461,159853.0,220415.0,9807.0
1679515496329461,159874.0,220481.0,9827.0
1679515496337461,159923.0,220462.0,9847.0
1679515496348461,159976.0,220495.0,9820.0
1679515496358461,159992.0,220535.0,9850.0
1679515496369461,159991.0,220544.0,9858.0
1679515496377461,160050.0,220573.0,9863.0
1679515496388461,160058.0,220637.0,9874.0
1679515496398461,160042.0,220638.0,9881.0
1679515496409461,160088.0,220635.0,9870.0
1679515496419461,160093.0,220682.0,9872.0
1679515496428461,160113.0,220669.0,9918.0
1679515496438461,160201.0,220692.0,9876.0
1679515496449461,160178.0,220692.0,9871.0
1679515496458461,160200.0,220716.0,9867.0
1679515496468461,160207.0,220701.0,9846.0
1679515496478461,160160.0,220702.0,9882.0
1679515496488461,160183.0,220717.0,9879.0
1679515496498461,160205.0,220723.0,9862.0
1679515496508462,160187.0,220721.0,9881.0
1679515496518462,160177.0,220706.0,9879.0
1679515496529461,160197.0,220734.0,9870.0
1679515496538462,160193.0,220724.0,9873.0
1679515496548462,160185.0,220718.0,9876.0
1679515496558462,160159.0,220720.0,9883.0
1679515496568462,160190.0,220716.0,9849.0
1679515496578462,160198.0,220707.0,9884.0
1679515496588462,160205.0,220714.0,9881.0
1679515496598461,160201.0,220720.0,9884.0
1679515496609461,160186.0,220717.0,9889.0
1679515496618461,160200.0,220691.0,9879.0
1679515496628461,160192.0,220738.0,9892.0
1679515496638461,160190.0,220724.0,9883.0
1679515496648461,160206.0,220735.0,9880.0
1679515496658461,160204.0,220742.0,9866.0
1679515496668461,160200.0,220732.0,9875.0
1679515496678461,160183.0,220752.0,9887.0
1679515496688462,160180.0,220729.0,9882.0
1679515496698462,160181.0,220732.0,9881.0
1679515496709462,160216.0,220749.0,9891.0
1679515496718462,160226.0,220647.0,9887.0
1679515496728462,160233.0,220677.0,9888.0
1679515496738462,160235.0,220762.0,9881.0
1679515496749462,160261.0,220744.0,9893.0
1679515496758462,160266.0,220735.0,9889.0
1679515496768462,160270.0,220743.0,9897.0
1679515496778462,160270.0,220767.0,9893.0
1679515496789461,160291.0,220741.0,9906.0
1679515496798462,160310.0,220730.0,9893.0
1679515496808462,160313.0,220794.0,9895.0
1679515496818462,160312.0,220780.0,9902.0
1679515496829461,160325.0,220798.0,9893.0
1679515496837461,160332.0,220810.0,9902.0
1679515496848461,160344.0,220827.0,9895.0
1679515496858461,160325.0,220828.0,9909.0
1679515496869462,160337.0,220836.0,9898.0
1679515496877462,160312.0,220833.0,9904.0
1679515496888461,160360.0,220855.0,9910.0
1679515496898461,160371.0,220849.0,9901.0
1679515496909461,160359.0,220834.0,9904.0
1679515496918461,160367.0,220835.0,9901.0
1679515496928461,160379.0,220811.0,9902.0
1679515496938461,160347.0,220787.0,9899.0
1679515496949461,160369.0,220790.0,9901.0
1679515496958461,160379.0,220834.0,9906.0
1679515496968461,160350.0,220819.0,9889.0
1679515496978461,160287.0,220768.0,9883.0
1679515496988461,160147.0,220641.0,9861.0
1679515496998461,159912.0,220465.0,9839.0
1679515497008461,159658.0,220246.0,9800.0
1679515497018461,159376.0,220026.0,9740.0
1679515497028461,159058.0,219777.0,9705.0
1679515497038461,158803.0,219537.0,9644.0
1679515497048462,158575.0,219341.0,9591.0
1679515497058462,158417.0,219220.0,9612.0
1679515497068462,158290.0,219182.0,9592.0
1679515497078462,158291.0,219147.0,9610.0
1679515497088462,158371.0,219228.0,9611.0
1679515497098461,158468.0,219329.0,9628.0
1679515497109461,158606.0,219416.0,9625.0
1679515497118461,158782.0,219557.0,9666.0
1679515497128461,158927.0,219677.0,9691.0
1679515497138461,159103.0,219826.0,9725.0
1679515497148461,159249.0,219955.0,9738.0
1679515497158461,159406.0,220074.0,9744.0
1679515497168461,159533.0,220166.0,9770.0
1679515497177461,159634.0,220252.0,9791.0
1679515497188461,159712.0,220327.0,9807.0
1679515497198461,159833.0,220417.0,9826.0
1679515497209461,159943.0,220511.0,9831.0
1679515497218461,160022.0,220562.0,9842.0
1679515497228462,160094.0,220609.0,9861.0
1679515497238462,160163.0,220678.0,9860.0
1679515497249462,160191.0,220675.0,9862.0
1679515497257461,160214.0,220669.0,9873.0
1679515497268461,160182.0,220676.0,9874.0
1679515497278461,160144.0,220624.0,9861.0
1679515497288461,160096.0,220552.0,9855.0
1679515497298461,160035.0,220508.0,9837.0
1679515497307461,159937.0,220468.0,9839.0
1679515497318461,159868.0,220393.0,9809.0
1679515497329461,159780.0,220331.0,9804.0
1679515497337461,159706.0,220316.0,9791.0
1679515497348461,159631.0,220167.0,9791.0
1679515497358461,159594.0,220161.0,9782.0
1679515497369461,159563.0,220189.0,9790.0
1679515497377461,159545.0,220169.0,9778.0
1679515497388461,159563.0,220171.0,9782.0
1679515497398461,159587.0,220186.0,9773.0
1679515497409462,159574.0,220192.0,9795.0
1679515497418462,159623.0,220222.0,9785.0
1679515497429462,159643.0,220189.0,9792.0
1679515497438462,159669.0,220233.0,9789.0
1679515497448462,159715.0,220318.0,9799.0
1679515497459462,159737.0,220333.0,9794.0
1679515497467461,159767.0,220358.0,9773.0
1679515497478461,159845.0,220422.0,9789.0
1679515497488461,159874.0,220398.0,9813.0
1679515497498461,159914.0,220470.0,9792.0
1679515497507461,159941.0,220472.0,9816.0
1679515497518461,159986.0,220488.0,9825.0
1679515497529461,159994.0,220518.0,9806.0
1679515497538461,160038.0,220531.0,9835.0
1679515497548461,160034.0,220513.0,9855.0
1679515497558461,160063.0,220538.0,9857.0
1679515497568461,160081.0,220545.0,9853.0
1679515497578461,160078.0,220582.0,9848.0
1679515497588462,160091.0,220589.0,9861.0
1679515497598461,160108.0,220598.0,9871.0
1679515497608461,160117.0,220604.0,9865.0
1679515497618461,160138.0,220631.0,9864.0
1679515497629461,160126.0,220570.0,9862.0
1679515497638461,160126.0,220565.0,9854.0
1679515497648461,160118.0,220612.0,9856.0
1679515497658461,160142.0,220627.0,9834.0
1679515497668461,160121.0,220639.0,9825.0
1679515497678461,160110.0,220611.0,9850.0
1679515497688461,160126.0,220632.0,9828.0
1679515497698461,160153.0,220643.0,9817.0
1679515497708461,160112.0,220627.0,9851.0
1679515497718461,160148.0,220635.0,9838.0
