Data Set 1:Time(s),Data Set 1:Force(N),Data Set 1:Respiration Rate(bpm)
0,1.0269699096679688,8.8932809829711914
0.099999999999999992,1.3335647583007812,
0.19999999999999998,1.7065963745117188,
0.29999999999999999,1.7960205078125,
0.39999999999999997,1.8011322021484375,
0.5,1.732147216796875,
0.59999999999999998,1.6273956298828125,
0.69999999999999996,1.5098648071289062,
0.79999999999999993,1.382110595703125,
0.89999999999999991,1.2569198608398438,
1,1.106170654296875,
1.0999999999999999,0.9835357666015625,
1.2,0.9273223876953125,
1.3,0.8915557861328125,
1.3999999999999999,0.8711090087890625,
1.5,0.83789825439453125,
1.5999999999999999,0.794464111328125,
1.7,0.756134033203125,
1.7999999999999998,0.7254791259765625,
1.8999999999999999,0.68970489501953125,
2,0.67182159423828125,
2.1000000000000001,0.63094329833984375,
2.1999999999999997,0.546630859375,
2.2999999999999998,0.49808502197265625,
2.3999999999999999,0.49041748046875,
2.5,0.5031890869140625,
2.6000000000000001,0.52108001708984375,
2.6999999999999997,0.52108001708984375,
2.7999999999999998,0.51085662841796875,
2.8999999999999999,0.51085662841796875,
3,0.51596832275390625,
3.0999999999999996,0.5415191650390625,
3.1999999999999997,0.57984161376953125,
3.2999999999999998,0.5594024658203125,
3.3999999999999999,0.5236358642578125,
3.5,0.546630859375,
3.5999999999999996,0.5875091552734375,
3.6999999999999997,0.67437744140625,
3.7999999999999998,0.79190826416015625,
3.8999999999999999,0.8813323974609375,
4,0.9503173828125,
4.0999999999999996,1.0295257568359375,
4.2000000000000002,1.1266098022460938,
4.2999999999999998,1.2237014770507812,
4.3999999999999995,1.30035400390625,
4.5,1.2926864624023438,
4.5999999999999996,1.282470703125,
4.7000000000000002,1.3693389892578125,
4.7999999999999998,1.4894256591796875,
4.8999999999999995,1.612060546875,
5,1.7091522216796875,
5.0999999999999996,1.7653656005859375,
5.2000000000000002,1.8087997436523438,
5.2999999999999998,1.8369064331054688,
5.3999999999999995,1.8394546508789062,
5.5,1.7934646606445312,
5.5999999999999996,1.650390625,
5.7000000000000002,1.4485397338867188,
5.7999999999999998,1.3029098510742188,
5.8999999999999995,1.2237014770507812,
6,1.1674957275390625,
6.0999999999999996,1.1317214965820312,
6.1999999999999993,1.0985107421875,
6.2999999999999998,1.0550689697265625,
6.3999999999999995,1.0218582153320312,
6.5,1.00653076171875,
6.5999999999999996,0.9911956787109375,
6.6999999999999993,0.9835357666015625,
6.7999999999999998,0.93243408203125,
6.8999999999999995,0.8455657958984375,
7,0.80979156494140625,
7.0999999999999996,0.8021240234375,
7.1999999999999993,0.80979156494140625,
7.2999999999999998,0.81490325927734375,
7.3999999999999995,0.8021240234375,
7.5,0.79190826416015625,
7.5999999999999996,0.78424072265625,
7.6999999999999993,0.7791290283203125,
7.7999999999999998,0.766357421875,
7.8999999999999995,0.7535858154296875,
8,0.69992828369140625,
8.0999999999999996,0.6232757568359375,
8.1999999999999993,0.5951690673828125,
8.2999999999999989,0.5875091552734375,
8.4000000000000004,0.60283660888671875,
8.5,0.61305999755859375,
8.5999999999999996,0.6053924560546875,
8.6999999999999993,0.61305999755859375,
8.7999999999999989,0.646270751953125,
8.9000000000000004,0.71269989013671875,
9,0.78424072265625,
9.0999999999999996,0.8532257080078125,
9.1999999999999993,0.86089324951171875,
9.2999999999999989,0.85578155517578125,
9.4000000000000004,0.922210693359375,
9.5,1.0193023681640625,
9.5999999999999996,1.1215057373046875,
9.6999999999999993,1.2083740234375,
9.7999999999999989,1.2799148559570312,
9.9000000000000004,1.3616714477539062,
10,1.4485397338867188,7.1090049743652344
10.1,1.5379714965820312,
10.199999999999999,1.604400634765625,
10.299999999999999,1.6197280883789062,
10.4,1.512420654296875,
10.5,1.3540115356445312,
10.6,1.2748031616210938,
10.699999999999999,1.22625732421875,
10.799999999999999,1.19049072265625,
10.9,1.1572723388671875,
11,1.1112823486328125,
11.1,1.0678482055664062,
11.199999999999999,1.0397415161132812,
11.299999999999999,1.0244140625,
11.4,1.0039749145507812,
11.5,0.97075653076171875,
11.6,0.87877655029296875,
11.699999999999999,0.78679656982421875,
11.799999999999999,0.7535858154296875,
11.899999999999999,0.72803497314453125,
12,0.70503997802734375,
12.1,0.67693328857421875,
12.199999999999999,0.63861083984375,
12.299999999999999,0.6053924560546875,
12.399999999999999,0.5875091552734375,
12.5,0.59006500244140625,
12.6,0.61305999755859375,
12.699999999999999,0.6334991455078125,
12.799999999999999,0.57984161376953125,
12.899999999999999,0.50574493408203125,
13,0.48786163330078125,
13.1,0.48786163330078125,
13.199999999999999,0.500640869140625,
13.299999999999999,0.5134124755859375,
13.399999999999999,0.5312957763671875,
13.5,0.56707000732421875,
13.6,0.62071990966796875,
13.699999999999999,0.6794891357421875,
13.799999999999999,0.73569488525390625,
13.899999999999999,0.794464111328125,
14,0.794464111328125,
14.1,0.7612457275390625,
14.199999999999999,0.7893524169921875,
14.299999999999999,0.8532257080078125,
14.399999999999999,0.9170989990234375,
14.5,0.99375152587890625,
14.6,1.0448532104492188,
14.699999999999999,1.1036148071289062,
14.799999999999999,1.1674957275390625,
14.899999999999999,1.2339248657226562,
15,1.3029098510742188,
15.1,1.3591156005859375,
15.199999999999999,1.33612060546875,
15.299999999999999,1.2211456298828125,
15.399999999999999,1.1317214965820312,
15.5,1.07806396484375,
15.6,1.032073974609375,
15.699999999999999,0.99375152587890625,
15.799999999999999,0.94264984130859375,
15.899999999999999,0.886444091796875,
16,0.83789825439453125,
16.099999999999998,0.79701995849609375,
16.199999999999999,0.756134033203125,
16.300000000000001,0.7152557373046875,
16.399999999999999,0.646270751953125,
16.5,0.5312957763671875,
16.599999999999998,0.444427490234375,
16.699999999999999,0.41632080078125,
16.800000000000001,0.41632080078125,
16.899999999999999,0.4214324951171875,
17,0.4112091064453125,
17.099999999999998,0.408660888671875,
17.199999999999999,0.4112091064453125,
17.300000000000001,0.408660888671875,
17.399999999999999,0.408660888671875,
17.5,0.408660888671875,
17.599999999999998,0.3984375,
17.699999999999999,0.34477996826171875,
17.800000000000001,0.28601837158203125,
17.899999999999999,0.2834625244140625,
18,0.29878997802734375,
18.099999999999998,0.32689666748046875,
18.199999999999999,0.35500335693359375,
18.300000000000001,0.3754425048828125,
18.399999999999999,0.3933258056640625,
18.5,0.42910003662109375,
18.599999999999998,0.46486663818359375,
18.699999999999999,0.518524169921875,
18.800000000000001,0.5823974609375,
18.899999999999999,0.63605499267578125,
19,0.64882659912109375,
19.099999999999998,0.69992828369140625,
19.199999999999999,0.8353424072265625,
19.300000000000001,0.996307373046875,
19.399999999999999,1.1674957275390625,
19.5,1.3182373046875,
19.599999999999998,1.4332122802734375,
19.699999999999999,1.548187255859375,
19.800000000000001,1.6784896850585938,
19.899999999999999,1.7858047485351562,
20,1.8675613403320312,13.564431190490723
20.099999999999998,1.9033355712890625,
20.199999999999999,1.8317947387695312,
20.300000000000001,1.7270355224609375,
20.399999999999999,1.6452789306640625,
20.5,1.55841064453125,
20.599999999999998,1.48431396484375,
20.699999999999999,1.4076614379882812,
20.800000000000001,1.3182373046875,
20.899999999999999,1.2313690185546875,
21,1.162384033203125,
21.099999999999998,1.1010589599609375,
21.199999999999999,1.0295257568359375,
21.300000000000001,0.93498992919921875,
21.399999999999999,0.7995758056640625,
21.5,0.684600830078125,
21.599999999999998,0.63094329833984375,
21.699999999999999,0.61305999755859375,
21.800000000000001,0.61305999755859375,
21.899999999999999,0.592620849609375,
22,0.55684661865234375,
22.099999999999998,0.50830078125,
22.199999999999999,0.444427490234375,
22.300000000000001,0.3856658935546875,
22.399999999999999,0.34222412109375,
22.5,0.29878997802734375,
22.599999999999998,0.21192169189453125,
22.699999999999999,0.15316009521484375,
22.800000000000001,0.14804840087890625,
22.899999999999999,0.1735992431640625,
23,0.21192169189453125,
23.099999999999998,0.22214508056640625,
23.199999999999999,0.1914825439453125,
23.300000000000001,0.17615509033203125,
23.399999999999999,0.18381500244140625,
23.5,0.20680999755859375,
23.599999999999998,0.22980499267578125,
23.699999999999999,0.2374725341796875,
23.799999999999997,0.2017059326171875,
23.899999999999999,0.12505340576171875,
24,0.07906341552734375,
24.099999999999998,0.08417510986328125,
24.199999999999999,0.0995025634765625,
24.299999999999997,0.12249755859375,
24.399999999999999,0.140380859375,
24.5,0.168487548828125,
24.599999999999998,0.21192169189453125,
24.699999999999999,0.27069091796875,
24.799999999999997,0.33712005615234375,
24.899999999999999,0.4112091064453125,
25,0.49041748046875,
25.099999999999998,0.50830078125,
25.199999999999999,0.50830078125,
25.299999999999997,0.59772491455078125,
25.399999999999999,0.74080657958984375,
25.5,0.87366485595703125,
25.599999999999998,0.9733123779296875,
25.699999999999999,1.0397415161132812,
25.799999999999997,1.0908432006835938,
25.899999999999999,1.1419448852539062,
26,1.1496047973632812,
26.099999999999998,1.0857315063476562,
26.199999999999999,0.986083984375,
26.299999999999997,0.830230712890625,
26.399999999999999,0.67182159423828125,
26.5,0.60028076171875,
26.599999999999998,0.55684661865234375,
26.699999999999999,0.52873992919921875,
26.799999999999997,0.49808502197265625,
26.899999999999999,0.45465087890625,
27,0.40610504150390625,
27.099999999999998,0.36777496337890625,
27.199999999999999,0.34989166259765625,
27.299999999999997,0.33200836181640625,
27.399999999999999,0.30901336669921875,
27.5,0.24002838134765625,
27.599999999999998,0.168487548828125,
27.699999999999999,0.15316009521484375,
27.799999999999997,0.14804840087890625,
27.899999999999999,0.16082000732421875,
28,0.1735992431640625,
28.099999999999998,0.17104339599609375,
28.199999999999999,0.1633758544921875,
28.299999999999997,0.1633758544921875,
28.399999999999999,0.2144775390625,
28.5,0.32178497314453125,
28.599999999999998,0.3754425048828125,
28.699999999999999,0.296234130859375,
28.799999999999997,0.1914825439453125,
28.899999999999999,0.16082000732421875,
29,0.1735992431640625,
29.099999999999998,0.22214508056640625,
29.199999999999999,0.2936859130859375,
29.299999999999997,0.37288665771484375,
29.399999999999999,0.47509002685546875,
29.5,0.61305999755859375,
29.599999999999998,0.7612457275390625,
29.699999999999999,0.90177154541015625,
29.799999999999997,1.0244140625,
29.899999999999999,1.014190673828125,
30,0.88388824462890625,12.269938468933105
30.099999999999998,0.794464111328125,
30.199999999999999,0.78168487548828125,
30.299999999999997,0.848114013671875,
30.399999999999999,0.93498992919921875,
30.5,0.9375457763671875,
30.599999999999998,0.8992156982421875,
30.699999999999999,0.85833740234375,
30.799999999999997,0.7433624267578125,
30.899999999999999,0.6232757568359375,
31,0.50574493408203125,
31.099999999999998,0.42910003662109375,
31.199999999999999,0.3243408203125,
31.299999999999997,0.26302337646484375,
31.399999999999999,0.2476959228515625,
31.5,0.2655792236328125,
31.599999999999998,0.3115692138671875,
31.699999999999999,0.34989166259765625,
31.799999999999997,0.3933258056640625,
31.899999999999999,0.444427490234375,
32,0.52618408203125,
32.100000000000001,0.62583160400390625,
32.199999999999996,0.73569488525390625,
32.299999999999997,0.812347412109375,
32.399999999999999,0.8404541015625,
32.5,0.9094390869140625,
32.600000000000001,1.0193023681640625,
32.699999999999996,1.088287353515625,
32.799999999999997,1.088287353515625,
32.899999999999999,1.032073974609375,
33,0.94264984130859375,
33.100000000000001,0.85833740234375,
33.199999999999996,0.78679656982421875,
33.299999999999997,0.71269989013671875,
33.399999999999999,0.62583160400390625,
33.5,0.51085662841796875,
33.600000000000001,0.37288665771484375,
33.699999999999996,0.28857421875,
33.799999999999997,0.25279998779296875,
33.899999999999999,0.2374725341796875,
34,0.22980499267578125,
34.100000000000001,0.2144775390625,
34.199999999999996,0.168487548828125,
34.299999999999997,0.11994171142578125,
34.399999999999999,0.094390869140625,
34.5,0.0892791748046875,
34.600000000000001,0.1173858642578125,
34.699999999999996,0.150604248046875,
34.799999999999997,0.16082000732421875,
34.899999999999999,0.2144775390625,
35,0.3652191162109375,
35.100000000000001,0.5951690673828125,
35.199999999999996,0.83789825439453125,
35.299999999999997,1.032073974609375,
35.399999999999999,1.13427734375,
35.5,1.1700439453125,
35.600000000000001,1.1853790283203125,
35.699999999999996,1.1496047973632812,
35.799999999999997,1.07806396484375,
35.899999999999999,0.99375152587890625,
36,0.8813323974609375,
36.100000000000001,0.8353424072265625,
36.199999999999996,0.87366485595703125,
36.299999999999997,0.85578155517578125,
36.399999999999999,0.75102996826171875,
36.5,0.684600830078125,
36.600000000000001,0.6411590576171875,
36.699999999999996,0.5594024658203125,
36.799999999999997,0.500640869140625,
36.899999999999999,0.518524169921875,
37,0.58495330810546875,
37.100000000000001,0.56451416015625,
37.199999999999996,0.370330810546875,
37.299999999999997,0.2553558349609375,
37.399999999999999,0.30645751953125,
37.5,0.34477996826171875,
37.600000000000001,0.3294525146484375,
37.699999999999996,0.250244140625,
37.799999999999997,0.18892669677734375,
37.899999999999999,0.19659423828125,
38,0.21192169189453125,
38.100000000000001,0.242584228515625,
38.199999999999996,0.27579498291015625,
38.299999999999997,0.278350830078125,
38.399999999999999,0.22980499267578125,
38.5,0.23236083984375,
38.600000000000001,0.3294525146484375,
38.699999999999996,0.3294525146484375,
38.799999999999997,0.2655792236328125,
38.899999999999999,0.370330810546875,
39,0.58495330810546875,
39.100000000000001,0.6334991455078125,
39.199999999999996,0.444427490234375,
39.299999999999997,0.27579498291015625,
39.399999999999999,0.26813507080078125,
39.5,0.28601837158203125,
39.600000000000001,0.1914825439453125,
39.699999999999996,0.18381500244140625,
39.799999999999997,0.28857421875,
39.899999999999999,0.2476959228515625,
40,0.16082000732421875,14.285715103149414
40.100000000000001,0.1914825439453125,
40.199999999999996,0.2144775390625,
40.299999999999997,0.15316009521484375,
40.399999999999999,0.1046142578125,
40.5,0.11994171142578125,
40.600000000000001,0.1046142578125,
40.699999999999996,0.0177459716796875,
40.799999999999997,-0.033355712890625,
40.899999999999999,0.03307342529296875,
41,0.14804840087890625,
41.100000000000001,0.29878997802734375,
41.199999999999996,0.54407501220703125,
41.299999999999997,0.81490325927734375,
41.399999999999999,0.996307373046875,
41.5,1.1266098022460938,
41.600000000000001,1.254364013671875,
41.699999999999996,1.3488998413085938,
41.799999999999997,1.328460693359375,
41.899999999999999,1.2799148559570312,
42,1.2492523193359375,
42.100000000000001,1.1955947875976562,
42.199999999999996,1.1189498901367188,
42.299999999999997,0.95798492431640625,
42.399999999999999,0.720367431640625,
42.5,0.5031890869140625,
42.600000000000001,0.34222412109375,
42.699999999999996,0.21703338623046875,
42.799999999999997,0.09183502197265625,
42.899999999999999,-0.03591156005859375,
43,-0.107452392578125,
43.100000000000001,-0.11767578125,
43.199999999999996,-0.08190155029296875,
43.299999999999997,-0.04102325439453125,
43.399999999999999,-0.015472412109375,
43.5,0.03307342529296875,
43.600000000000001,0.12505340576171875,
43.699999999999996,0.224700927734375,
43.799999999999997,0.224700927734375,
43.899999999999999,0.09183502197265625,
44,-0.05890655517578125,
44.100000000000001,-0.09722900390625,
44.199999999999996,-0.02313995361328125,
44.299999999999997,0.05095672607421875,
44.399999999999999,0.1735992431640625,
44.5,0.3984375,
44.600000000000001,0.67437744140625,
44.699999999999996,0.92987823486328125,
44.799999999999997,1.1496047973632812,
44.899999999999999,1.3080215454101562,
45,1.3667831420898438,
45.100000000000001,1.2773590087890625,
45.199999999999996,1.1393890380859375,
45.299999999999997,1.0295257568359375,
45.399999999999999,0.92476654052734375,
45.5,0.8404541015625,
45.600000000000001,0.82257080078125,
45.699999999999996,0.87877655029296875,
45.799999999999997,0.93498992919921875,
45.899999999999999,0.96564483642578125,
46,0.9733123779296875,
46.100000000000001,0.90177154541015625,
46.199999999999996,0.8021240234375,
46.299999999999997,0.7254791259765625,
46.399999999999999,0.63861083984375,
46.5,0.646270751953125,
46.600000000000001,0.76380157470703125,
46.699999999999996,0.8455657958984375,
46.799999999999997,0.9094390869140625,
46.899999999999999,1.0244140625,
47,1.1317214965820312,
47.100000000000001,1.1828231811523438,
47.199999999999996,1.1777114868164062,
47.299999999999997,1.088287353515625,
47.399999999999999,0.96564483642578125,
47.5,0.85578155517578125,
47.599999999999994,0.80979156494140625,
47.699999999999996,0.85066986083984375,
47.799999999999997,0.84300994873046875,
47.899999999999999,0.75868988037109375,
48,0.646270751953125,
48.099999999999994,0.50830078125,
48.199999999999996,0.36777496337890625,
48.299999999999997,0.2476959228515625,
48.399999999999999,0.16082000732421875,
48.5,0.0816192626953125,
48.599999999999994,0.1046142578125,
48.699999999999996,0.18892669677734375,
48.799999999999997,0.25279998779296875,
48.899999999999999,0.27579498291015625,
49,0.30645751953125,
49.099999999999994,0.352447509765625,
49.199999999999996,0.40610504150390625,
49.299999999999997,0.4725341796875,
49.399999999999999,0.5415191650390625,
49.5,0.5696258544921875,
49.599999999999994,0.4674224853515625,
49.699999999999996,0.30645751953125,
49.799999999999997,0.19403839111328125,
49.899999999999999,0.18381500244140625,
50,0.27069091796875,15.590200424194336
50.099999999999994,0.41887664794921875,
50.199999999999996,0.5875091552734375,
50.299999999999997,0.74080657958984375,
50.399999999999999,0.89410400390625,
50.5,1.0678482055664062,
50.599999999999994,1.244140625,
50.699999999999996,1.3259048461914062,
50.799999999999997,1.3310165405273438,
50.899999999999999,1.3335647583007812,
51,1.2518081665039062,
51.099999999999994,1.070404052734375,
51.199999999999996,0.87366485595703125,
51.299999999999997,0.7075958251953125,
51.399999999999999,0.5696258544921875,
51.5,0.46486663818359375,
51.599999999999994,0.39076995849609375,
51.699999999999996,0.29113006591796875,
51.799999999999997,0.15316009521484375,
51.899999999999999,0.0713958740234375,
52,0.02796173095703125,
52.099999999999994,-0.0205841064453125,
52.199999999999996,-0.02569580078125,
52.299999999999997,0.020294189453125,
52.399999999999999,0.04584503173828125,
52.5,0.02796173095703125,
52.599999999999994,0.01263427734375,
52.699999999999996,0.09694671630859375,
52.799999999999997,0.2093658447265625,
52.899999999999999,0.2655792236328125,
53,0.316680908203125,
53.099999999999994,0.31412506103515625,
53.199999999999996,0.2655792236328125,
53.299999999999997,0.2272491455078125,
53.399999999999999,0.2093658447265625,
53.5,0.27069091796875,
53.599999999999994,0.43675994873046875,
53.699999999999996,0.60794830322265625,
53.799999999999997,0.738250732421875,
53.899999999999999,0.93498992919921875,
54,1.1674957275390625,
54.099999999999994,1.290130615234375,
54.199999999999996,1.2645797729492188,
54.299999999999997,1.1930389404296875,
54.399999999999999,1.0448532104492188,
54.5,0.7995758056640625,
54.599999999999994,0.6411590576171875,
54.699999999999996,0.5415191650390625,
54.799999999999997,0.4725341796875,
54.899999999999999,0.462310791015625,
55,0.4571990966796875,
55.099999999999994,0.444427490234375,
55.199999999999996,0.41632080078125,
55.299999999999997,0.352447509765625,
55.399999999999999,0.296234130859375,
55.5,0.2732391357421875,
55.599999999999994,0.25791168212890625,
55.699999999999996,0.21703338623046875,
55.799999999999997,0.12505340576171875,
55.899999999999999,0.0662841796875,
56,0.0713958740234375,
56.099999999999994,0.112274169921875,
