time,ecg,hr,rr,marker
1679517967457231646,-0.002,68,812
1679517967464928731,-0.006
1679517967472625816,-0.002
1679517967480322901,0.014
1679517967488019986,0.033
1679517967495717071,0.033
1679517967503414156,0.027
1679517967511111241,0.035
1679517967518808326,0.033
1679517967526505411,-0.006
1679517967534202496,-0.029
1679517967541899581,-0.01
1679517967549596666,-0.002
1679517967557293751,-0.012
1679517967564990836,-0.008
1679517967572687921,0.014
1679517967580385006,0.033
1679517967588082091,0.029
1679517967595779176,0.002
1679517967603476261,-0.01
1679517967611173346,-0.002
1679517967618870431,0.002
1679517967626567516,0.008
1679517967634264601,0.022
1679517967641961686,0.02
1679517967649658771,0.008
1679517967657355856,0.029
1679517967665052941,0.10400000000000001
1679517967672750026,0.281
1679517967680447111,0.577
1679517967688144196,0.858
1679517967695841281,0.8180000000000001
1679517967703538366,0.16
1679517967711235451,-0.652
1679517967718932536,-0.629
1679517967726629621,-0.091
1679517967734326706,0.012
1679517967742023791,-0.10400000000000001
1679517967749720876,-0.029
1679517967757417961,0.035
1679517967765115046,0.004
1679517967772812131,0.016
1679517967780509216,0.052000000000000005
1679517967788206301,0.056
1679517967795903386,0.054
1679517967803600471,0.047
1679517967811297556,0.037
1679517967818994641,0.037
1679517967826691726,0.039
1679517967834388811,0.047
1679517967842085896,0.077
1679517967849782981,0.097
1679517967857480066,0.10200000000000001
1679517967865177151,0.11800000000000001
1679517967872874236,0.137
1679517967880571321,0.137
1679517967888268406,0.145
1679517967895965491,0.177
1679517967903662576,0.2
1679517967911359661,0.202
1679517967919056746,0.189
1679517967926753831,0.187
1679517967934450916,0.195
1679517967942148001,0.191
1679517967949845086,0.183
1679517967957542171,0.183
1679517967965239256,0.177
1679517967972936341,0.168
1679517967980633426,0.181
1679517967988330511,0.218
1679517967996027596,0.247
1679517968003724681,0.254
1679517968011421766,0.241
1679517968019118890,0.225
1679517968026816114,0.202
1679517968034513338,0.17200000000000001
1679517968042210562,0.158
1679517968049907786,0.131
1679517968057605010,0.052000000000000005
1679517968065302234,-0.037
1679517968072999458,-0.068
1679517968080696682,-0.07200000000000001
1679517968088393906,-0.089
1679517968096091130,-0.108
1679517968103788354,-0.12
1679517968111485578,-0.12
1679517968119182802,-0.114
1679517968126880026,-0.10200000000000001
1679517968134577250,-0.089
1679517968142274474,-0.081
1679517968149971698,-0.08700000000000001
1679517968157668922,-0.1
1679517968165366146,-0.089
1679517968173063370,-0.066
1679517968180760594,-0.062
1679517968188457818,-0.083
1679517968196155042,-0.139
1679517968203852266,-0.189
1679517968211549490,-0.189
1679517968219246714,-0.17200000000000001
1679517968226943938,-0.164
1679517968234641162,-0.152
1679517968242338386,-0.152
1679517968250035610,-0.154
1679517968257732834,-0.129
1679517968265430058,-0.10400000000000001
1679517968273127282,-0.1
1679517968280824506,-0.1
1679517968288521730,-0.093
1679517968296218954,-0.106
1679517968303916178,-0.135
1679517968311613402,-0.129
1679517968319310626,-0.095
1679517968327007850,-0.083
1679517968334705074,-0.093
1679517968342402298,-0.085
1679517968350099522,-0.056
1679517968357796746,-0.027
1679517968365493970,0.002
1679517968373191194,0.025
1679517968380888418,0.035
1679517968388585642,0.033
1679517968396282866,0.014
1679517968403980090,0.008
1679517968411677314,0.029
1679517968419374538,0.029
1679517968427071762,-0.002
1679517968434768986,0.006
1679517968442466210,0.037
1679517968450163434,0.056
1679517968457860658,0.097
1679517968465557882,0.195
1679517968473255106,0.41000000000000003
1679517968480952330,0.714
1679517968488649554,0.912
1679517968496346778,0.725
1679517968504044002,0.014
1679517968511741226,-0.56
1679517968519438450,-0.297
1679517968527135674,0.154
1679517968534832898,0.125
1679517968542530122,0.031
1679517968550227346,0.11
1679517968557924570,0.127
1679517968565621794,0.093
1679517968573319018,0.11
1679517968581016304,0.129,69,828
1679517968588713250,0.135
1679517968596410196,0.154
1679517968604107142,0.158
1679517968611804088,0.145
1679517968619501034,0.152
1679517968627197980,0.162
1679517968634894926,0.127
1679517968642591872,0.091
1679517968650288818,0.108
1679517968657985764,0.122
1679517968665682710,0.10400000000000001
1679517968673379656,0.112
1679517968681076602,0.147
1679517968688773548,0.158
1679517968696470494,0.135
1679517968704167440,0.081
1679517968711864386,0.033
1679517968719561332,0.035
1679517968727258278,0.043000000000000003
1679517968734955224,0.037
1679517968742652170,0.041
1679517968750349116,0.035
1679517968758046062,0.014
1679517968765743008,0.014
1679517968773439954,0.037
1679517968781136900,0.064
1679517968788833846,0.066
1679517968796530792,0.039
1679517968804227738,0.041
1679517968811924684,0.06
1679517968819621630,0.035
1679517968827318576,-0.004
1679517968835015522,-0.008
1679517968842712468,-0.008
1679517968850409414,-0.025
1679517968858106360,-0.031
1679517968865803306,-0.027
1679517968873500252,-0.039
1679517968881197198,-0.07
1679517968888894144,-0.085
1679517968896591090,-0.079
1679517968904288036,-0.079
1679517968911984982,-0.079
1679517968919681928,-0.066
1679517968927378874,-0.06
1679517968935075820,-0.075
1679517968942772766,-0.075
1679517968950469712,-0.056
1679517968958166658,-0.047
1679517968965863604,-0.052000000000000005
1679517968973560550,-0.045
1679517968981257496,-0.041
1679517968988954442,-0.045
1679517968996651388,-0.047
1679517969004348334,-0.037
1679517969012045280,-0.02
1679517969019742226,-0.018000000000000002
1679517969027439172,-0.054
1679517969035136118,-0.093
1679517969042833064,-0.093
1679517969050530010,-0.07
1679517969058226956,-0.068
1679517969065923902,-0.068
1679517969073620848,-0.058
1679517969081317794,-0.056
1679517969089014740,-0.052000000000000005
1679517969096711686,-0.031
1679517969104408632,-0.01
1679517969112105578,-0.006
1679517969119802524,-0.012
1679517969127499470,-0.004
1679517969135196416,0.018000000000000002
1679517969142893376,0.027,69,844
1679517969150590670,0.029,,808
1679517969158287964,0.043000000000000003
1679517969165985258,0.039
1679517969173682552,-0.008
1679517969181379846,-0.045
1679517969189077140,-0.022
1679517969196774434,0.01
1679517969204471728,-0.004
1679517969212169022,-0.06
1679517969219866316,-0.075
1679517969227563610,-0.033
1679517969235260904,-0.016
1679517969242958198,-0.014
1679517969250655492,0.006
1679517969258352786,-0.01
1679517969266050080,-0.056
1679517969273747374,-0.056
1679517969281444668,-0.047
1679517969289141962,-0.075
1679517969296839256,-0.08700000000000001
1679517969304536550,-0.075
1679517969312233844,-0.064
1679517969319931138,-0.045
1679517969327628432,0.014
1679517969335325726,0.189
1679517969343023020,0.485
1679517969350720314,0.737
1679517969358417608,0.741
1679517969366114902,0.225
1679517969373812196,-0.531
1679517969381509490,-0.562
1679517969389206784,-0.033
1679517969396904078,0.10400000000000001
1679517969404601372,-0.025
1679517969412298666,0.012
1679517969419995960,0.07
1679517969427693254,0.075
1679517969435390548,0.10200000000000001
1679517969443087842,0.108
1679517969450785136,0.093
1679517969458482430,0.112
1679517969466179724,0.14300000000000002
1679517969473877018,0.152
1679517969481574312,0.14300000000000002
1679517969489271606,0.152
1679517969496968900,0.168
1679517969504666194,0.179
1679517969512363488,0.189
1679517969520060782,0.202
1679517969527758076,0.181
1679517969535455370,0.133
1679517969543152664,0.122
1679517969550849958,0.137
1679517969558547252,0.135
1679517969566244546,0.145
1679517969573941840,0.17
1679517969581639134,0.17500000000000002
1679517969589336428,0.162
1679517969597033722,0.16
1679517969604731016,0.158
1679517969612428310,0.14100000000000001
1679517969620125604,0.114
1679517969627822898,0.089
1679517969635520192,0.097
1679517969643217486,0.158
1679517969650914780,0.216
1679517969658612074,0.222
1679517969666309368,0.229
1679517969674006662,0.243
1679517969681703956,0.222
1679517969689401250,0.179
1679517969697098544,0.156
1679517969704795880,0.154
1679517969712492895,0.091
1679517969720189910,-0.022
1679517969727886925,-0.039
1679517969735583940,0.014
1679517969743280955,-0.039
1679517969750977970,-0.129
1679517969758674985,-0.122
1679517969766372000,-0.108
1679517969774069015,-0.14300000000000002
1679517969781766030,-0.14100000000000001
1679517969789463045,-0.091
1679517969797160060,-0.114
1679517969804857075,-0.212
1679517969812554090,-0.23900000000000002
1679517969820251105,-0.179
1679517969827948120,-0.154
1679517969835645135,-0.17
1679517969843342150,-0.168
1679517969851039165,-0.15
1679517969858736180,-0.152
1679517969866433195,-0.162
1679517969874130210,-0.145
1679517969881827225,-0.116
1679517969889524240,-0.11
1679517969897221255,-0.11800000000000001
1679517969904918270,-0.122
1679517969912615285,-0.10200000000000001
1679517969920312300,-0.085
1679517969928009315,-0.083
1679517969935706330,-0.07
1679517969943403345,-0.047
1679517969951100360,-0.047
1679517969958797375,-0.056
1679517969966494390,-0.043000000000000003
1679517969974191405,-0.02
1679517969981888420,-0.022
1679517969989585435,-0.043000000000000003
1679517969997282450,-0.037
1679517970004979465,-0.006
1679517970012676480,0.002
1679517970020373495,-0.012
1679517970028070510,-0.025
1679517970035767525,-0.02
1679517970043464540,-0.022
1679517970051161555,-0.027
1679517970058858570,0.012
1679517970066555585,0.056
1679517970074252600,0.054
1679517970081949615,0.047
1679517970089646630,0.064
1679517970097343645,0.075
1679517970105040660,0.075
1679517970112737675,0.097
1679517970120434690,0.131
1679517970128131705,0.145
1679517970135828720,0.145
1679517970143525735,0.139
1679517970151222750,0.127
1679517970158919765,0.112
1679517970166616780,0.114
1679517970174313795,0.12
1679517970182010810,0.116
1679517970189707825,0.116
1679517970197404840,0.122
1679517970205101855,0.129
1679517970212798870,0.12
1679517970220495885,0.131
1679517970228192900,0.293
1679517970235889915,0.6
1679517970243586930,0.839
1679517970251283945,0.6950000000000001
1679517970258980960,-0.029
1679517970266678036,-0.681,70,798
1679517970274375191,-0.483
1679517970282072346,-0.025
1679517970289769501,-0.02
1679517970297466656,-0.091
1679517970305163811,0.004
1679517970312860966,0.027
1679517970320558121,-0.018000000000000002
1679517970328255276,0.002
1679517970335952431,0.029
1679517970343649586,-0.004
1679517970351346741,-0.035
1679517970359043896,-0.016
1679517970366741051,-0.002
1679517970374438206,-0.014
1679517970382135361,-0.002
1679517970389832516,0.037
1679517970397529671,0.06
1679517970405226826,0.064
1679517970412923981,0.07
1679517970420621136,0.085
1679517970428318291,0.106
1679517970436015446,0.116
1679517970443712601,0.131
1679517970451409756,0.154
1679517970459106911,0.152
1679517970466804066,0.129
1679517970474501221,0.11
1679517970482198376,0.12
1679517970489895531,0.156
1679517970497592686,0.164
1679517970505289841,0.131
1679517970512986996,0.093
1679517970520684151,0.062
1679517970528381306,0.045
1679517970536078461,0.06
1679517970543775616,0.077
1679517970551472771,0.077
1679517970559169926,0.079
1679517970566867081,0.095
1679517970574564236,0.095
1679517970582261391,0.06
1679517970589958546,0.031
1679517970597655701,0.033
1679517970605352856,0.035
1679517970613050011,0.018000000000000002
1679517970620747166,0.004
1679517970628444321,0.004
1679517970636141476,-0.018000000000000002
1679517970643838631,-0.06
1679517970651535786,-0.07
1679517970659232941,-0.05
1679517970666930096,-0.045
1679517970674627251,-0.052000000000000005
1679517970682324406,-0.054
1679517970690021561,-0.054
1679517970697718716,-0.056
1679517970705415871,-0.058
1679517970713113026,-0.06
1679517970720810181,-0.083
1679517970728507336,-0.16
1679517970736204491,-0.231
1679517970743901646,-0.212
1679517970751598801,-0.154
1679517970759295956,-0.17500000000000002
1679517970766993111,-0.229
1679517970774690266,-0.216
1679517970782387421,-0.191
1679517970790084576,-0.202
1679517970797781731,-0.197
1679517970805478886,-0.166
1679517970813176041,-0.14300000000000002
1679517970820873196,-0.137
1679517970828570366,-0.14100000000000001
1679517970836267242,-0.131
1679517970843964118,-0.10400000000000001
1679517970851660994,-0.08700000000000001
1679517970859357870,-0.079
1679517970867054746,-0.062
1679517970874751622,-0.06
1679517970882448498,-0.095
1679517970890145374,-0.133
1679517970897842250,-0.11800000000000001
1679517970905539126,-0.089
1679517970913236002,-0.091
1679517970920932878,-0.1
1679517970928629754,-0.081
1679517970936326630,-0.056
1679517970944023506,-0.047
1679517970951720382,-0.037
1679517970959417258,-0.014
1679517970967114134,-0.01
1679517970974811010,-0.014
1679517970982507886,0.0
1679517970990204762,0.02
1679517970997901638,0.031
1679517971005598514,0.027
1679517971013295390,0.006
1679517971020992266,0.008
1679517971028689142,0.035
1679517971036386018,0.041
1679517971044082894,0.058
1679517971051779770,0.095
1679517971059476646,0.10400000000000001
1679517971067173522,0.1
1679517971074870398,0.112
1679517971082567274,0.10400000000000001
1679517971090264150,0.081
1679517971097961026,0.077
1679517971105657902,0.083
1679517971113354778,0.08700000000000001
1679517971121051654,0.093
1679517971128748530,0.1
1679517971136445406,0.112
1679517971144142282,0.137
1679517971151839158,0.21
1679517971159536034,0.42
1679517971167232910,0.733
1679517971174929786,0.964
1679517971182626662,0.789
1679517971190323538,0.035
1679517971198020414,-0.547
1679517971205717290,-0.23500000000000001
1679517971213414166,0.20400000000000001
1679517971221111042,0.129
1679517971228807918,0.012
1679517971236504794,0.056
1679517971244201670,0.041
1679517971251898546,0.0
1679517971259595422,0.008
1679517971267292298,0.027
1679517971274989174,0.031
1679517971282686050,0.037
1679517971290382926,0.05
1679517971298079802,0.058
1679517971305776678,0.066
1679517971313473554,0.077
1679517971321170430,0.091
1679517971328867306,0.116
1679517971336564182,0.125
1679517971344261058,0.106
1679517971351957934,0.1
1679517971359654810,0.12
1679517971367351686,0.158
1679517971375048562,0.179
1679517971382745438,0.17200000000000001
1679517971390442350,0.168,70,865
1679517971398139714,0.179
1679517971405837078,0.195
1679517971413534442,0.214
1679517971421231806,0.214
1679517971428929170,0.187
1679517971436626534,0.17200000000000001
1679517971444323898,0.177
1679517971452021262,0.14100000000000001
1679517971459718626,0.081
1679517971467415990,0.068
1679517971475113354,0.093
1679517971482810718,0.1
1679517971490508082,0.097
1679517971498205446,0.085
1679517971505902810,0.037
1679517971513600174,-0.018000000000000002
1679517971521297538,-0.039
1679517971528994902,-0.025
1679517971536692266,-0.016
1679517971544389630,-0.031
1679517971552086994,-0.043000000000000003
1679517971559784358,-0.045
1679517971567481722,-0.066
1679517971575179086,-0.093
1679517971582876450,-0.085
1679517971590573814,-0.068
1679517971598271178,-0.066
1679517971605968542,-0.077
1679517971613665906,-0.085
1679517971621363270,-0.077
1679517971629060634,-0.07
1679517971636757998,-0.075
1679517971644455362,-0.07
1679517971652152726,-0.058
1679517971659850090,-0.068
1679517971667547454,-0.085
1679517971675244818,-0.07200000000000001
1679517971682942182,-0.052000000000000005
1679517971690639546,-0.052000000000000005
1679517971698336910,-0.064
1679517971706034274,-0.066
1679517971713731638,-0.052000000000000005
1679517971721429002,-0.039
1679517971729126366,-0.068
1679517971736823730,-0.125
1679517971744521094,-0.164
1679517971752218458,-0.193
1679517971759915822,-0.20400000000000001
1679517971767613186,-0.181
1679517971775310550,-0.152
1679517971783007914,-0.14300000000000002
1679517971790705278,-0.139
1679517971798402642,-0.127
1679517971806100006,-0.112
1679517971813797370,-0.1
1679517971821494734,-0.089
1679517971829192098,-0.066
1679517971836889462,-0.05
1679517971844586826,-0.054
1679517971852284190,-0.052000000000000005
1679517971859981554,-0.025
1679517971867678918,0.0
1679517971875376282,0.002
1679517971883073646,0.008
1679517971890771010,0.018000000000000002
1679517971898468374,0.022
1679517971906165738,0.025
1679517971913863102,0.039
1679517971921560466,0.062
1679517971929257830,0.068
1679517971936955194,0.058
1679517971944652558,0.06
1679517971952349940,0.083
1679517971960046746,0.095
1679517971967743552,0.095
1679517971975440358,0.10200000000000001
1679517971983137164,0.10400000000000001
1679517971990833970,0.085
1679517971998530776,0.068
1679517972006227582,0.085
1679517972013924388,0.11800000000000001
1679517972021621194,0.106
1679517972029318000,0.05
1679517972037014806,0.047
1679517972044711612,0.066
1679517972052408418,0.031
1679517972060105224,0.002
1679517972067802030,0.025
1679517972075498836,0.033
1679517972083195642,0.018000000000000002
1679517972090892448,0.027
1679517972098589254,0.054
1679517972106286060,0.075
1679517972113982866,0.1
1679517972121679672,0.21
1679517972129376478,0.468
1679517972137073284,0.766
1679517972144770090,0.891
1679517972152466896,0.531
1679517972160163702,-0.256
1679517972167860508,-0.554
1679517972175557314,-0.10400000000000001
1679517972183254120,0.177
1679517972190950926,0.079
1679517972198647732,0.079
1679517972206344538,0.147
1679517972214041344,0.11800000000000001
1679517972221738150,0.10400000000000001
1679517972229434956,0.1
1679517972237131762,0.022
1679517972244828568,-0.018000000000000002
1679517972252525374,0.01
1679517972260222180,0.01
1679517972267918986,-0.008
1679517972275615792,0.014
1679517972283312598,0.047
1679517972291009404,0.06
1679517972298706210,0.062
1679517972306403016,0.07200000000000001
1679517972314099822,0.08700000000000001
1679517972321796628,0.10400000000000001
1679517972329493434,0.112
1679517972337190240,0.131
1679517972344887046,0.152
1679517972352583852,0.15
1679517972360280658,0.139
1679517972367977464,0.156
1679517972375674270,0.17500000000000002
1679517972383371076,0.17
1679517972391067882,0.16
1679517972398764688,0.154
1679517972406461494,0.15
1679517972414158300,0.139
1679517972421855106,0.137
1679517972429551912,0.147
1679517972437248718,0.16
1679517972444945524,0.16
1679517972452642330,0.17200000000000001
1679517972460339136,0.20400000000000001
1679517972468035942,0.212
1679517972475732748,0.17500000000000002
1679517972483429554,0.108
1679517972491126360,0.056
1679517972498823166,0.041
1679517972506519972,0.031
1679517972514216836,0.008,71,891
1679517972521914130,0.006
1679517972529611424,-0.006
1679517972537308718,-0.052000000000000005
1679517972545006012,-0.068
1679517972552703306,-0.047
1679517972560400600,-0.075
1679517972568097894,-0.133
1679517972575795188,-0.147
1679517972583492482,-0.135
1679517972591189776,-0.147
1679517972598887070,-0.154
1679517972606584364,-0.135
1679517972614281658,-0.11800000000000001
1679517972621978952,-0.127
1679517972629676246,-0.139
1679517972637373540,-0.133
1679517972645070834,-0.11800000000000001
1679517972652768128,-0.12
1679517972660465422,-0.122
1679517972668162716,-0.108
1679517972675860010,-0.10400000000000001
1679517972683557304,-0.114
1679517972691254598,-0.108
1679517972698951892,-0.083
1679517972706649186,-0.064
1679517972714346480,-0.068
1679517972722043774,-0.083
1679517972729741068,-0.108
1679517972737438362,-0.166
1679517972745135656,-0.227
1679517972752832950,-0.227
1679517972760530244,-0.195
1679517972768227538,-0.2
1679517972775924832,-0.20600000000000002
1679517972783622126,-0.181
1679517972791319420,-0.147
1679517972799016714,-0.131
1679517972806714008,-0.129
1679517972814411302,-0.122
1679517972822108596,-0.10400000000000001
1679517972829805890,-0.085
1679517972837503184,-0.077
1679517972845200478,-0.06
1679517972852897772,-0.037
1679517972860595066,-0.035
1679517972868292360,-0.039
1679517972875989654,-0.018000000000000002
1679517972883686948,0.012
1679517972891384242,0.022
1679517972899081536,0.02
1679517972906778830,0.025
1679517972914476124,0.041
1679517972922173418,0.054
1679517972929870712,0.056
1679517972937568006,0.07200000000000001
1679517972945265300,0.10400000000000001
1679517972952962594,0.116
1679517972960659888,0.114
1679517972968357182,0.135
1679517972976054476,0.127
1679517972983751770,0.056
1679517972991449064,0.01
1679517972999146358,0.025
1679517973006843652,0.035
1679517973014540946,0.029
1679517973022238240,0.037
1679517973029935534,0.064
1679517973037632828,0.077
1679517973045330122,0.07200000000000001
1679517973053027416,0.122
1679517973060724710,0.318
1679517973068422004,0.622
1679517973076119340,0.847,70,931
1679517973083816355,0.6970000000000001
1679517973091513370,0.0
1679517973099210385,-0.595
1679517973106907400,-0.368
1679517973114604415,0.091
1679517973122301430,0.116
1679517973129998445,0.035
1679517973137695460,0.079
1679517973145392475,0.095
1679517973153089490,0.089
1679517973160786505,0.089
1679517973168483520,0.05
1679517973176180535,0.031
1679517973183877550,0.052000000000000005
1679517973191574565,0.047
1679517973199271580,0.045
1679517973206968595,0.075
1679517973214665610,0.091
1679517973222362625,0.075
1679517973230059640,0.052000000000000005
1679517973237756655,0.037
1679517973245453670,-0.002
1679517973253150685,-0.041
1679517973260847700,-0.033
1679517973268544715,-0.004
1679517973276241730,0.0
1679517973283938745,-0.006
1679517973291635760,0.006
1679517973299332775,0.037
1679517973307029790,0.054
1679517973314726805,0.043000000000000003
1679517973322423820,0.035
1679517973330120835,0.047
1679517973337817850,0.056
1679517973345514865,0.041
1679517973353211880,0.037
1679517973360908895,0.058
1679517973368605910,0.068
1679517973376302925,0.07
1679517973383999940,0.10400000000000001
1679517973391696955,0.154
1679517973399393970,0.187
1679517973407090985,0.191
1679517973414788000,0.154
1679517973422485015,0.122
1679517973430182030,0.129
1679517973437879045,0.122
1679517973445576060,0.093
1679517973453273075,0.07200000000000001
1679517973460970090,0.05
1679517973468667105,0.012
1679517973476364120,-0.014
1679517973484061135,-0.01
1679517973491758150,-0.012
1679517973499455165,-0.041
1679517973507152180,-0.052000000000000005
1679517973514849195,-0.043000000000000003
1679517973522546210,-0.052000000000000005
1679517973530243225,-0.06
1679517973537940240,-0.041
1679517973545637255,-0.022
1679517973553334270,-0.039
1679517973561031285,-0.054
1679517973568728300,-0.052000000000000005
1679517973576425315,-0.041
1679517973584122330,-0.037
1679517973591819345,-0.039
1679517973599516360,-0.035
1679517973607213375,-0.018000000000000002
1679517973614910390,-0.018000000000000002
1679517973622607405,-0.025
1679517973630304420,-0.01
1679517973638001496,-0.002
1679517973645698651,-0.022
1679517973653395806,-0.027
1679517973661092961,-0.002
1679517973668790116,0.012
1679517973676487271,0.006
1679517973684184426,0.006
1679517973691881581,0.01
1679517973699578736,-0.018000000000000002
1679517973707275891,-0.083
1679517973714973046,-0.127
1679517973722670201,-0.127
1679517973730367356,-0.131
1679517973738064511,-0.154
1679517973745761666,-0.189
1679517973753458821,-0.225
1679517973761155976,-0.229
1679517973768853131,-0.212
1679517973776550286,-0.197
1679517973784247441,-0.181
1679517973791944596,-0.17
1679517973799641751,-0.156
1679517973807338906,-0.112
1679517973815036061,-0.075
1679517973822733216,-0.062
1679517973830430371,-0.052000000000000005
1679517973838127526,-0.043000000000000003
1679517973845824681,-0.058
1679517973853521836,-0.07
1679517973861218991,-0.052000000000000005
1679517973868916146,-0.033
1679517973876613301,-0.035
1679517973884310456,-0.031
1679517973892007611,-0.008
1679517973899704766,0.02
1679517973907401921,0.058
1679517973915099076,0.156
1679517973922796231,0.393
1679517973930493386,0.714
1679517973938190541,0.918
1679517973945887696,0.645
1679517973953584851,-0.17
1679517973961282006,-0.658
1679517973968979161,-0.314
1679517973976676316,0.045
1679517973984373471,-0.004
1679517973992070626,-0.025
1679517973999767781,0.064
1679517974007464936,0.058
1679517974015162091,0.029
1679517974022859246,0.062
1679517974030556401,0.089
1679517974038253556,0.089
1679517974045950711,0.11
1679517974053647866,0.133
1679517974061345021,0.129
1679517974069042176,0.125
1679517974076739331,0.15
1679517974084436486,0.17500000000000002
1679517974092133641,0.177
1679517974099830796,0.17500000000000002
1679517974107527951,0.181
1679517974115225106,0.193
1679517974122922261,0.20400000000000001
1679517974130619416,0.20800000000000002
1679517974138316571,0.229
1679517974146013726,0.256
1679517974153710881,0.252
1679517974161408036,0.23900000000000002
1679517974169105191,0.254
1679517974176802346,0.268
1679517974184499501,0.26
1679517974192196656,0.247
1679517974199893826,0.229,70,968
1679517974207590981,0.185
1679517974215288136,0.14100000000000001
1679517974222985291,0.137
1679517974230682446,0.158
1679517974238379601,0.166
1679517974246076756,0.135
1679517974253773911,0.081
1679517974261471066,0.05
1679517974269168221,0.02
1679517974276865376,-0.058
1679517974284562531,-0.108
1679517974292259686,-0.1
1679517974299956841,-0.106
1679517974307653996,-0.122
1679517974315351151,-0.11800000000000001
1679517974323048306,-0.116
1679517974330745461,-0.147
1679517974338442616,-0.177
1679517974346139771,-0.168
1679517974353836926,-0.145
1679517974361534081,-0.147
1679517974369231236,-0.17200000000000001
1679517974376928391,-0.177
1679517974384625546,-0.14300000000000002
1679517974392322701,-0.11800000000000001
1679517974400019856,-0.125
1679517974407717011,-0.116
1679517974415414166,-0.093
1679517974423111321,-0.095
1679517974430808476,-0.114
1679517974438505631,-0.108
1679517974446202786,-0.089
1679517974453899941,-0.10400000000000001
1679517974461597096,-0.12
1679517974469294251,-0.108
1679517974476991406,-0.10400000000000001
1679517974484688561,-0.114
1679517974492385716,-0.1
1679517974500082871,-0.07200000000000001
1679517974507780026,-0.06
1679517974515477181,-0.062
1679517974523174336,-0.064
1679517974530871491,-0.058
1679517974538568646,-0.039
1679517974546265801,-0.02
1679517974553962956,-0.008
1679517974561660111,0.004
1679517974569357266,0.008
1679517974577054421,0.002
1679517974584751576,0.014
1679517974592448731,0.041
1679517974600145886,0.052000000000000005
1679517974607843041,0.05
1679517974615540196,0.05
1679517974623237351,0.062
1679517974630934506,0.07200000000000001
1679517974638631661,0.075
1679517974646328816,0.081
1679517974654025971,0.10200000000000001
1679517974661723126,0.112
1679517974669420281,0.112
1679517974677117436,0.133
1679517974684814591,0.164
1679517974692511746,0.147
1679517974700208901,0.091
1679517974707906056,0.047
1679517974715603211,0.047
1679517974723300366,0.056
1679517974730997521,0.052000000000000005
1679517974738694676,0.068
1679517974746391831,0.077
1679517974754088986,0.031
1679517974761786154,0.029
1679517974769483169,0.216
1679517974777180184,0.543
1679517974784877199,0.812
1679517974792574214,0.8180000000000001
1679517974800271229,0.247
1679517974807968244,-0.581
1679517974815665259,-0.637
1679517974823362274,-0.097
1679517974831059289,0.029
1679517974838756304,-0.116
1679517974846453319,-0.075
1679517974854150334,-0.02
1679517974861847349,-0.035
1679517974869544364,0.0
1679517974877241379,0.033
1679517974884938394,0.033
1679517974892635409,0.045
1679517974900332424,0.06
1679517974908029439,0.062
1679517974915726454,0.083
1679517974923423469,0.114
1679517974931120484,0.122
1679517974938817499,0.11
1679517974946514514,0.081
1679517974954211529,0.05
1679517974961908544,0.039
1679517974969605559,0.075
1679517974977302574,0.127
1679517974984999589,0.14300000000000002
1679517974992696604,0.133
1679517975000393619,0.14300000000000002
1679517975008090634,0.166
1679517975015787649,0.179
1679517975023484664,0.17200000000000001
1679517975031181679,0.154
1679517975038878694,0.145
1679517975046575709,0.154
1679517975054272724,0.145
1679517975061969739,0.129
1679517975069666754,0.139
1679517975077363769,0.147
1679517975085060784,0.14100000000000001
1679517975092757799,0.164
1679517975100454814,0.189
1679517975108151829,0.177
1679517975115848844,0.164
1679517975123545859,0.154
1679517975131242874,0.139
1679517975138939889,0.137
1679517975146636904,0.14300000000000002
1679517975154333919,0.14100000000000001
1679517975162030934,0.127
1679517975169727949,0.10400000000000001
1679517975177424964,0.068
1679517975185121979,0.039
1679517975192818994,0.016
1679517975200516009,-0.016
1679517975208213024,-0.041
1679517975215910039,-0.045
1679517975223607054,-0.045
1679517975231304069,-0.043000000000000003
1679517975239001084,-0.05
1679517975246698099,-0.052000000000000005
1679517975254395114,-0.058
1679517975262092129,-0.097
1679517975269789144,-0.147
1679517975277486159,-0.147
1679517975285183174,-0.131
1679517975292880189,-0.131
1679517975300577204,-0.131
1679517975308274219,-0.139
1679517975315971234,-0.137
1679517975323668312,-0.11800000000000001,69,935
1679517975331365606,-0.10200000000000001
1679517975339062900,-0.077
1679517975346760194,-0.075
1679517975354457488,-0.131
1679517975362154782,-0.17
1679517975369852076,-0.145
1679517975377549370,-0.116
1679517975385246664,-0.114
1679517975392943958,-0.112
1679517975400641252,-0.097
1679517975408338546,-0.08700000000000001
1679517975416035840,-0.079
1679517975423733134,-0.064
1679517975431430428,-0.052000000000000005
1679517975439127722,-0.07200000000000001
1679517975446825016,-0.114
1679517975454522310,-0.11
1679517975462219604,-0.075
1679517975469916898,-0.062
1679517975477614192,-0.06
1679517975485311486,-0.045
1679517975493008780,-0.033
1679517975500706074,-0.027
1679517975508403368,-0.014
1679517975516100662,0.006
1679517975523797956,0.037
1679517975531495250,0.062
1679517975539192544,0.062
1679517975546889838,0.077
1679517975554587132,0.097
1679517975562284426,0.077
1679517975569981720,0.043000000000000003
1679517975577679014,0.056
1679517975585376308,0.068
1679517975593073602,0.058
1679517975600770896,0.064
1679517975608468190,0.08700000000000001
1679517975616165484,0.106
1679517975623862778,0.116
1679517975631560072,0.179
1679517975639257366,0.383
1679517975646954660,0.6950000000000001
1679517975654651954,0.92
1679517975662349248,0.772
1679517975670046542,0.066
1679517975677743836,-0.5660000000000001
1679517975685441130,-0.354
1679517975693138424,0.10400000000000001
1679517975700835718,0.1
1679517975708533012,0.012
1679517975716230306,0.083
1679517975723927600,0.093
1679517975731624894,0.066
1679517975739322188,0.1
1679517975747019482,0.11800000000000001
1679517975754716776,0.108
1679517975762414070,0.081
1679517975770111364,0.02
1679517975777808658,-0.004
1679517975785505952,0.027
1679517975793203246,0.052000000000000005
1679517975800900540,0.056
1679517975808597834,0.06
1679517975816295128,0.07
1679517975823992422,0.08700000000000001
1679517975831689716,0.10400000000000001
1679517975839387010,0.114
1679517975847084304,0.131
1679517975854781598,0.152
1679517975862478892,0.145
1679517975870176186,0.139
1679517975877873480,0.158
1679517975885570812,0.177
1679517975893267758,0.17200000000000001
1679517975900964704,0.156
1679517975908661650,0.14300000000000002
1679517975916358596,0.14100000000000001
1679517975924055542,0.14300000000000002
1679517975931752488,0.122
1679517975939449434,0.095
1679517975947146380,0.089
1679517975954843326,0.058
1679517975962540272,0.027
1679517975970237218,0.058
1679517975977934164,0.08700000000000001
1679517975985631110,0.056
1679517975993328056,0.016
1679517976001025002,-0.002
1679517976008721948,-0.012
1679517976016418894,-0.014
1679517976024115840,-0.018000000000000002
1679517976031812786,-0.029
1679517976039509732,-0.039
1679517976047206678,-0.06
1679517976054903624,-0.07200000000000001
1679517976062600570,-0.06
1679517976070297516,-0.054
1679517976077994462,-0.062
1679517976085691408,-0.064
1679517976093388354,-0.066
1679517976101085300,-0.079
1679517976108782246,-0.08700000000000001
1679517976116479192,-0.077
1679517976124176138,-0.075
1679517976131873084,-0.093
1679517976139570030,-0.106
1679517976147266976,-0.081
1679517976154963922,-0.039
1679517976162660868,-0.031
1679517976170357814,-0.047
1679517976178054760,-0.07200000000000001
1679517976185751706,-0.108
1679517976193448652,-0.12
1679517976201145598,-0.106
1679517976208842544,-0.091
1679517976216539490,-0.077
1679517976224236436,-0.075
1679517976231933382,-0.081
1679517976239630328,-0.068
1679517976247327274,-0.05
1679517976255024220,-0.05
1679517976262721166,-0.085
1679517976270418112,-0.137
1679517976278115058,-0.156
1679517976285812004,-0.145
1679517976293508950,-0.135
1679517976301205896,-0.116
1679517976308902842,-0.091
1679517976316599788,-0.089
1679517976324296734,-0.093
1679517976331993680,-0.077
1679517976339690626,-0.058
1679517976347387572,-0.054
1679517976355084518,-0.039
1679517976362781464,-0.033
1679517976370478410,-0.052000000000000005
1679517976378175356,-0.027
1679517976385872302,0.029
1679517976393569248,0.052000000000000005
1679517976401266194,0.058
1679517976408963140,0.068
1679517976416660086,0.075
1679517976424357032,0.054
1679517976432053978,-0.002
1679517976439750924,-0.031
1679517976447447886,-0.008,69,860
1679517976455145110,0.004
1679517976462842334,-0.022
1679517976470539558,-0.043000000000000003
1679517976478236782,-0.02
1679517976485934006,0.025
1679517976493631230,0.05
1679517976501328454,0.108
1679517976509025678,0.308
1679517976516722902,0.62
1679517976524420126,0.843
1679517976532117350,0.672
1679517976539814574,-0.05
1679517976547511798,-0.6910000000000001
1679517976555209022,-0.518
1679517976562906246,-0.056
1679517976570603470,0.014
1679517976578300694,-0.043000000000000003
1679517976585997918,0.014
1679517976593695142,0.047
1679517976601392366,0.033
1679517976609089590,0.052000000000000005
1679517976616786814,0.075
1679517976624484038,0.083
1679517976632181262,0.095
1679517976639878486,0.095
1679517976647575710,0.081
1679517976655272934,0.093
1679517976662970158,0.129
1679517976670667382,0.133
1679517976678364606,0.116
1679517976686061830,0.12
1679517976693759054,0.131
1679517976701456278,0.131
1679517976709153502,0.14300000000000002
1679517976716850726,0.166
1679517976724547950,0.185
1679517976732245174,0.187
1679517976739942398,0.179
1679517976747639622,0.189
1679517976755336846,0.20800000000000002
1679517976763034070,0.195
1679517976770731294,0.139
1679517976778428518,0.089
1679517976786125742,0.081
1679517976793822966,0.075
1679517976801520190,0.06
1679517976809217414,0.07200000000000001
1679517976816914638,0.1
1679517976824611862,0.106
1679517976832309086,0.1
1679517976840006310,0.11800000000000001
1679517976847703534,0.139
1679517976855400758,0.122
1679517976863097982,0.089
1679517976870795206,0.075
1679517976878492430,0.062
1679517976886189654,0.041
1679517976893886878,0.025
1679517976901584102,0.029
1679517976909281326,0.027
1679517976916978550,-0.016
1679517976924675774,-0.066
1679517976932372998,-0.066
1679517976940070222,-0.056
1679517976947767446,-0.066
1679517976955464670,-0.06
1679517976963161894,-0.05
1679517976970859118,-0.066
1679517976978556342,-0.085
1679517976986253566,-0.066
1679517976993950790,-0.047
1679517977001648014,-0.054
1679517977009345302,-0.062
1679517977017042178,-0.06
1679517977024739054,-0.052000000000000005
1679517977032435930,-0.052000000000000005
1679517977040132806,-0.052000000000000005
1679517977047829682,-0.037
1679517977055526558,-0.035
1679517977063223434,-0.083
1679517977070920310,-0.135
1679517977078617186,-0.125
1679517977086314062,-0.095
1679517977094010938,-0.097
1679517977101707814,-0.097
1679517977109404690,-0.08700000000000001
1679517977117101566,-0.077
1679517977124798442,-0.075
1679517977132495318,-0.064
1679517977140192194,-0.043000000000000003
1679517977147889070,-0.02
1679517977155585946,-0.016
1679517977163282822,-0.039
1679517977170979698,-0.056
1679517977178676574,-0.043000000000000003
1679517977186373450,-0.033
1679517977194070326,-0.031
1679517977201767202,-0.016
1679517977209464078,-0.006
1679517977217160954,-0.004
1679517977224857830,0.022
1679517977232554706,0.062
1679517977240251582,0.079
1679517977247948458,0.077
1679517977255645334,0.07200000000000001
1679517977263342210,0.058
1679517977271039086,0.029
1679517977278735962,-0.012
1679517977286432838,-0.039
1679517977294129714,-0.035
1679517977301826590,-0.035
1679517977309523466,-0.033
1679517977317220342,-0.006
1679517977324917218,0.035
1679517977332614094,0.129
1679517977340310970,0.366
1679517977348007846,0.708
1679517977355704722,0.92
1679517977363401598,0.66
1679517977371098474,-0.152
1679517977378795350,-0.652
1679517977386492226,-0.266
1679517977394189102,0.129
1679517977401885978,0.033
1679517977409582854,-0.033
1679517977417279730,0.037
1679517977424976606,0.018000000000000002
1679517977432673482,-0.014
1679517977440370358,0.025
1679517977448067234,0.056
1679517977455764110,0.052000000000000005
1679517977463460986,0.064
1679517977471157862,0.089
1679517977478854738,0.093
1679517977486551614,0.091
1679517977494248490,0.108
1679517977501945366,0.133
1679517977509642242,0.147
1679517977517339118,0.154
1679517977525035994,0.158
1679517977532732870,0.17200000000000001
1679517977540429746,0.187
1679517977548126622,0.195
1679517977555823498,0.20800000000000002
1679517977563520374,0.225
1679517977571217286,0.218,68,851
1679517977578914580,0.20600000000000002
1679517977586611874,0.214
1679517977594309168,0.229
1679517977602006462,0.222
1679517977609703756,0.202
1679517977617401050,0.183
1679517977625098344,0.17
1679517977632795638,0.133
1679517977640492932,0.079
1679517977648190226,0.07
1679517977655887520,0.066
1679517977663584814,0.014
1679517977671282108,-0.008
1679517977678979402,0.014
1679517977686676696,0.004
1679517977694373990,-0.041
1679517977702071284,-0.058
1679517977709768578,-0.045
1679517977717465872,-0.045
1679517977725163166,-0.058
1679517977732860460,-0.06
1679517977740557754,-0.056
1679517977748255048,-0.081
1679517977755952342,-0.114
1679517977763649636,-0.112
1679517977771346930,-0.093
1679517977779044224,-0.11
1679517977786741518,-0.164
1679517977794438812,-0.193
1679517977802136106,-0.181
1679517977809833400,-0.179
1679517977817530694,-0.187
1679517977825227988,-0.17200000000000001
1679517977832925282,-0.15
1679517977840622576,-0.15
1679517977848319870,-0.162
1679517977856017164,-0.154
1679517977863714458,-0.131
1679517977871411752,-0.12
1679517977879109046,-0.12
1679517977886806340,-0.112
1679517977894503634,-0.114
1679517977902200928,-0.137
1679517977909898222,-0.14300000000000002
1679517977917595516,-0.116
1679517977925292810,-0.095
1679517977932990104,-0.1
1679517977940687398,-0.108
1679517977948384692,-0.093
1679517977956081986,-0.066
1679517977963779280,-0.056
1679517977971476574,-0.052000000000000005
1679517977979173868,-0.033
1679517977986871162,-0.022
1679517977994568456,-0.027
1679517978002265750,-0.016
1679517978009963044,0.006
1679517978017660338,0.027
1679517978025357632,0.027
1679517978033054926,0.02
1679517978040752220,0.033
1679517978048449514,0.056
1679517978056146808,0.064
1679517978063844102,0.07
1679517978071541396,0.1
1679517978079238690,0.12
1679517978086935984,0.12
1679517978094633278,0.135
1679517978102330572,0.156
1679517978110027866,0.133
1679517978117725160,0.093
1679517978125422454,0.091
1679517978133119788,0.108,69,867
1679517978140816664,0.108,,870
1679517978148513540,0.091
1679517978156210416,0.081
1679517978163907292,0.08700000000000001
1679517978171604168,0.064
1679517978179301044,0.079
1679517978186997920,0.3
1679517978194694796,0.656
1679517978202391672,0.887
1679517978210088548,0.6970000000000001
1679517978217785424,-0.064
1679517978225482300,-0.679
1679517978233179176,-0.393
1679517978240876052,0.079
1679517978248572928,0.052000000000000005
1679517978256269804,-0.02
1679517978263966680,0.062
1679517978271663556,0.07
1679517978279360432,0.05
1679517978287057308,0.077
1679517978294754184,0.054
1679517978302451060,0.002
1679517978310147936,0.012
1679517978317844812,0.033
1679517978325541688,0.027
1679517978333238564,0.039
1679517978340935440,0.07200000000000001
1679517978348632316,0.08700000000000001
1679517978356329192,0.081
1679517978364026068,0.089
1679517978371722944,0.11800000000000001
1679517978379419820,0.139
1679517978387116696,0.137
1679517978394813572,0.114
1679517978402510448,0.091
1679517978410207324,0.091
1679517978417904200,0.10200000000000001
1679517978425601076,0.112
1679517978433297952,0.129
1679517978440994828,0.129
1679517978448691704,0.106
1679517978456388580,0.1
1679517978464085456,0.114
1679517978471782332,0.112
1679517978479479208,0.10200000000000001
1679517978487176084,0.11
1679517978494872960,0.12
1679517978502569836,0.129
1679517978510266712,0.154
1679517978517963588,0.183
1679517978525660464,0.195
1679517978533357340,0.17
1679517978541054216,0.122
1679517978548751092,0.108
1679517978556447968,0.127
1679517978564144844,0.122
1679517978571841720,0.097
1679517978579538596,0.083
1679517978587235472,0.07
1679517978594932348,0.035
1679517978602629224,0.016
1679517978610326100,0.029
1679517978618022976,0.031
1679517978625719852,0.012
1679517978633416728,-0.014
1679517978641113604,-0.047
1679517978648810480,-0.079
1679517978656507356,-0.091
1679517978664204232,-0.089
1679517978671901108,-0.089
1679517978679597984,-0.097
1679517978687294860,-0.108
1679517978694991772,-0.1
1679517978702688648,-0.081
1679517978710385524,-0.07200000000000001
1679517978718082400,-0.081
1679517978725779276,-0.089
1679517978733476152,-0.083
1679517978741173028,-0.097
1679517978748869904,-0.14300000000000002
1679517978756566780,-0.15
1679517978764263656,-0.125
1679517978771960532,-0.133
1679517978779657408,-0.147
1679517978787354284,-0.137
1679517978795051160,-0.166
1679517978802748036,-0.222
1679517978810444912,-0.225
1679517978818141788,-0.197
1679517978825838664,-0.191
1679517978833535540,-0.185
1679517978841232416,-0.162
1679517978848929292,-0.135
1679517978856626168,-0.122
1679517978864323044,-0.129
1679517978872019920,-0.12
1679517978879716796,-0.097
1679517978887413672,-0.108
1679517978895110548,-0.137
1679517978902807424,-0.131
1679517978910504300,-0.106
1679517978918201176,-0.083
1679517978925898052,-0.062
1679517978933594928,-0.031
1679517978941291804,0.006
1679517978948988680,0.016
1679517978956685556,-0.022
1679517978964382432,-0.05
1679517978972079308,-0.027
1679517978979776184,-0.002
1679517978987473060,-0.004
1679517978995169936,0.0
1679517979002866812,0.016
1679517979010563688,0.025
1679517979018260564,0.035
1679517979025957440,0.114
1679517979033654316,0.333
1679517979041351192,0.643
1679517979049048068,0.879
1679517979056744944,0.795
1679517979064441820,0.14100000000000001
1679517979072138696,-0.5680000000000001
1679517979079835572,-0.42
1679517979087532448,0.106
1679517979095229324,0.131
1679517979102926200,0.01
1679517979110623076,0.106
1679517979118319952,0.152
1679517979126016828,0.095
1679517979133713704,0.079
1679517979141410580,0.083
1679517979149107456,0.081
1679517979156804332,0.1
1679517979164501208,0.116
1679517979172198084,0.125
1679517979179894960,0.145
1679517979187591836,0.158
1679517979195288712,0.154
1679517979202985588,0.158
1679517979210682464,0.185
1679517979218379340,0.20600000000000002
1679517979226076216,0.214
1679517979233773092,0.22
1679517979241469968,0.23500000000000001
1679517979249166844,0.25
1679517979256863756,0.252,69,830
1679517979264561050,0.258
1679517979272258344,0.268
1679517979279955638,0.23500000000000001
1679517979287652932,0.158
1679517979295350226,0.07200000000000001
1679517979303047520,-0.002
1679517979310744814,-0.041
1679517979318442108,-0.052000000000000005
1679517979326139402,-0.06
1679517979333836696,-0.05
1679517979341533990,-0.018000000000000002
1679517979349231284,0.01
1679517979356928578,0.047
1679517979364625872,0.089
1679517979372323166,0.093
1679517979380020460,0.052000000000000005
1679517979387717754,0.004
1679517979395415048,-0.008
1679517979403112342,-0.004
1679517979410809636,-0.012
1679517979418506930,-0.027
1679517979426204224,-0.039
1679517979433901518,-0.052000000000000005
1679517979441598812,-0.07
1679517979449296106,-0.079
1679517979456993400,-0.07200000000000001
1679517979464690694,-0.08700000000000001
1679517979472387988,-0.097
1679517979480085282,-0.081
1679517979487782576,-0.07
1679517979495479870,-0.077
1679517979503177164,-0.077
1679517979510874458,-0.07200000000000001
1679517979518571752,-0.075
1679517979526269046,-0.077
1679517979533966340,-0.066
1679517979541663634,-0.052000000000000005
1679517979549360928,-0.05
1679517979557058222,-0.062
1679517979564755516,-0.062
1679517979572452810,-0.039
1679517979580150104,-0.031
1679517979587847398,-0.031
1679517979595544692,-0.025
1679517979603241986,-0.02
1679517979610939280,-0.025
1679517979618636574,-0.029
1679517979626333868,-0.047
1679517979634031162,-0.068
1679517979641728456,-0.077
1679517979649425750,-0.085
1679517979657123044,-0.081
1679517979664820338,-0.06
1679517979672517632,-0.05
1679517979680214926,-0.047
1679517979687912220,-0.035
1679517979695609514,-0.025
1679517979703306808,-0.027
1679517979711004102,-0.018000000000000002
1679517979718701396,0.004
1679517979726398690,0.022
1679517979734095984,0.022
1679517979741793278,0.016
1679517979749490572,0.029
1679517979757187866,0.052000000000000005
1679517979764885160,0.06
1679517979772582454,0.07
1679517979780279748,0.10200000000000001
1679517979787977042,0.12
1679517979795674336,0.093
1679517979803371630,0.052000000000000005
1679517979811068924,0.027
1679517979818766260,0.008
1679517979826463275,-0.014
1679517979834160290,-0.018000000000000002
1679517979841857305,-0.004
1679517979849554320,0.01
1679517979857251335,0.016
1679517979864948350,0.022
1679517979872645365,0.006
1679517979880342380,-0.027
1679517979888039395,0.037
1679517979895736410,0.293
1679517979903433425,0.604
1679517979911130440,0.727
1679517979918827455,0.341
1679517979926524470,-0.462
1679517979934221485,-0.752
1679517979941918500,-0.28700000000000003
1679517979949615515,0.014
1679517979957312530,-0.064
1679517979965009545,-0.07200000000000001
1679517979972706560,-0.02
1679517979980403575,-0.039
1679517979988100590,-0.014
1679517979995797605,0.043000000000000003
1679517980003494620,0.045
1679517980011191635,0.033
1679517980018888650,0.056
1679517980026585665,0.07200000000000001
1679517980034282680,0.07
1679517980041979695,0.089
1679517980049676710,0.127
1679517980057373725,0.14100000000000001
1679517980065070740,0.131
1679517980072767755,0.133
1679517980080464770,0.158
1679517980088161785,0.181
1679517980095858800,0.183
1679517980103555815,0.187
1679517980111252830,0.187
1679517980118949845,0.154
1679517980126646860,0.114
1679517980134343875,0.12
1679517980142040890,0.14100000000000001
1679517980149737905,0.125
1679517980157434920,0.095
1679517980165131935,0.095
1679517980172828950,0.106
1679517980180525965,0.093
1679517980188222980,0.075
1679517980195919995,0.089
1679517980203617010,0.108
1679517980211314025,0.11
1679517980219011040,0.139
1679517980226708055,0.187
1679517980234405070,0.197
1679517980242102085,0.162
1679517980249799100,0.11800000000000001
1679517980257496115,0.10400000000000001
1679517980265193130,0.11800000000000001
1679517980272890145,0.11800000000000001
1679517980280587160,0.095
1679517980288284175,0.075
1679517980295981190,0.025
1679517980303678205,-0.07
1679517980311375220,-0.10400000000000001
1679517980319072235,-0.07
1679517980326769250,-0.068
1679517980334466265,-0.097
1679517980342163280,-0.10400000000000001
1679517980349860295,-0.093
1679517980357557310,-0.091
1679517980365254325,-0.108
1679517980372951340,-0.11800000000000001
1679517980380648416,-0.112,69,848
1679517980388345571,-0.11800000000000001
1679517980396042726,-0.137
1679517980403739881,-0.133
1679517980411437036,-0.106
1679517980419134191,-0.091
1679517980426831346,-0.10200000000000001
1679517980434528501,-0.106
1679517980442225656,-0.093
1679517980449922811,-0.106
1679517980457619966,-0.147
1679517980465317121,-0.147
1679517980473014276,-0.116
1679517980480711431,-0.122
1679517980488408586,-0.14100000000000001
1679517980496105741,-0.122
1679517980503802896,-0.093
1679517980511500051,-0.085
1679517980519197206,-0.083
1679517980526894361,-0.077
1679517980534591516,-0.066
1679517980542288671,-0.054
1679517980549985826,-0.041
1679517980557682981,-0.022
1679517980565380136,-0.002
1679517980573077291,0.002
1679517980580774446,0.0
1679517980588471601,0.02
1679517980596168756,0.056
1679517980603865911,0.079
1679517980611563066,0.066
1679517980619260221,0.047
1679517980626957376,0.039
1679517980634654531,0.014
1679517980642351686,-0.012
1679517980650048841,0.006
1679517980657745996,0.027
1679517980665443151,0.006
1679517980673140306,0.002
1679517980680837461,0.037
1679517980688534616,0.056
1679517980696231771,0.066
1679517980703928926,0.16
1679517980711626081,0.397
1679517980719323236,0.708
1679517980727020391,0.916
1679517980734717546,0.7000000000000001
1679517980742414701,-0.068
1679517980750111856,-0.608
1679517980757809011,-0.31
1679517980765506166,0.108
1679517980773203321,0.11
1679517980780900476,0.066
1679517980788597631,0.129
1679517980796294786,0.129
1679517980803991941,0.06
1679517980811689096,0.01
1679517980819386251,0.012
1679517980827083406,0.041
1679517980834780561,0.058
1679517980842477716,0.062
1679517980850174871,0.052000000000000005
1679517980857872026,0.029
1679517980865569181,0.02
1679517980873266336,0.033
1679517980880963491,0.05
1679517980888660646,0.06
1679517980896357801,0.052000000000000005
1679517980904054956,0.039
1679517980911752111,0.052000000000000005
1679517980919449266,0.091
1679517980927146421,0.129
1679517980934843576,0.147
1679517980942540746,0.14300000000000002
1679517980950238040,0.14300000000000002
1679517980957935334,0.158
1679517980965632628,0.158
1679517980973329922,0.152
1679517980981027216,0.156
1679517980988724510,0.125
1679517980996421804,0.056
1679517981004119098,0.02
1679517981011816392,0.043000000000000003
1679517981019513686,0.064
1679517981027210980,0.06
1679517981034908274,0.066
1679517981042605568,0.085
1679517981050302862,0.095
1679517981058000156,0.077
1679517981065697450,0.047
1679517981073394744,0.037
1679517981081092038,0.035
1679517981088789332,0.02
1679517981096486626,0.006
1679517981104183920,-0.025
1679517981111881214,-0.07200000000000001
1679517981119578508,-0.106
1679517981127275802,-0.116
1679517981134973096,-0.114
1679517981142670390,-0.114
1679517981150367684,-0.112
1679517981158064978,-0.1
1679517981165762272,-0.091
1679517981173459566,-0.106
1679517981181156860,-0.112
1679517981188854154,-0.089
1679517981196551448,-0.07200000000000001
1679517981204248742,-0.077
1679517981211946036,-0.085
1679517981219643330,-0.083
1679517981227340624,-0.079
1679517981235037918,-0.075
1679517981242735212,-0.064
1679517981250432506,-0.043000000000000003
1679517981258129800,-0.035
1679517981265827094,-0.045
1679517981273524388,-0.047
1679517981281221682,-0.025
1679517981288918976,-0.008
1679517981296616270,-0.014
1679517981304313564,-0.05
1679517981312010858,-0.10200000000000001
1679517981319708152,-0.127
1679517981327405446,-0.112
1679517981335102740,-0.10400000000000001
1679517981342800034,-0.10400000000000001
1679517981350497328,-0.116
1679517981358194622,-0.139
1679517981365891916,-0.133
1679517981373589210,-0.097
1679517981381286504,-0.07200000000000001
1679517981388983798,-0.056
1679517981396681092,-0.037
1679517981404378386,-0.02
1679517981412075680,-0.025
1679517981419772974,-0.054
1679517981427470268,-0.066
1679517981435167562,-0.039
1679517981442864856,-0.022
1679517981450562150,-0.029
1679517981458259444,-0.012
1679517981465956738,0.012
1679517981473654032,0.012
1679517981481351326,0.02
1679517981489048620,0.095
1679517981496745914,0.279
1679517981504443248,0.5700000000000001,69,848
1679517981512140124,0.841
1679517981519837000,0.8310000000000001
1679517981527533876,0.243
1679517981535230752,-0.522
1679517981542927628,-0.502
1679517981550624504,0.041
1679517981558321380,0.145
1679517981566018256,-0.029
1679517981573715132,-0.006
1679517981581412008,0.06
1679517981589108884,0.027
1679517981596805760,0.002
1679517981604502636,0.014
1679517981612199512,0.031
1679517981619896388,0.043000000000000003
1679517981627593264,0.045
1679517981635290140,0.035
1679517981642987016,0.052000000000000005
1679517981650683892,0.075
1679517981658380768,0.077
1679517981666077644,0.089
1679517981673774520,0.112
1679517981681471396,0.112
1679517981689168272,0.10400000000000001
1679517981696865148,0.125
1679517981704562024,0.154
1679517981712258900,0.162
1679517981719955776,0.156
1679517981727652652,0.15
1679517981735349528,0.16
1679517981743046404,0.166
1679517981750743280,0.162
1679517981758440156,0.17
1679517981766137032,0.177
1679517981773833908,0.154
1679517981781530784,0.133
1679517981789227660,0.14100000000000001
1679517981796924536,0.152
1679517981804621412,0.15
1679517981812318288,0.11800000000000001
1679517981820015164,0.079
1679517981827712040,0.085
1679517981835408916,0.106
1679517981843105792,0.07
1679517981850802668,0.012
1679517981858499544,-0.01
1679517981866196420,-0.02
1679517981873893296,-0.025
1679517981881590172,-0.016
1679517981889287048,-0.022
1679517981896983924,-0.037
1679517981904680800,-0.054
1679517981912377676,-0.07200000000000001
1679517981920074552,-0.083
1679517981927771428,-0.083
1679517981935468304,-0.077
1679517981943165180,-0.066
1679517981950862056,-0.068
1679517981958558932,-0.083
1679517981966255808,-0.081
1679517981973952684,-0.062
1679517981981649560,-0.06
1679517981989346436,-0.066
1679517981997043312,-0.058
1679517982004740188,-0.054
1679517982012437064,-0.066
1679517982020133940,-0.064
1679517982027830816,-0.043000000000000003
1679517982035527692,-0.027
1679517982043224568,-0.033
1679517982050921444,-0.045
1679517982058618320,-0.035
1679517982066315232,-0.012,69,858
1679517982074012526,-0.01,,818
1679517982081709820,-0.018000000000000002
1679517982089407114,-0.039
1679517982097104408,-0.08700000000000001
1679517982104801702,-0.137
1679517982112498996,-0.154
1679517982120196290,-0.133
1679517982127893584,-0.108
1679517982135590878,-0.11
1679517982143288172,-0.112
1679517982150985466,-0.081
1679517982158682760,-0.043000000000000003
1679517982166380054,-0.027
1679517982174077348,-0.006
1679517982181774642,0.004
1679517982189471936,-0.033
1679517982197169230,-0.064
1679517982204866524,-0.039
1679517982212563818,-0.008
1679517982220261112,-0.004
1679517982227958406,-0.004
1679517982235655700,0.002
1679517982243352994,0.018000000000000002
1679517982251050288,0.043000000000000003
1679517982258747582,0.125
1679517982266444876,0.352
1679517982274142170,0.677
1679517982281839464,0.891
1679517982289536758,0.712
1679517982297234052,-0.008
1679517982304931346,-0.606
1679517982312628640,-0.354
1679517982320325934,0.068
1679517982328023228,-0.006
1679517982335720522,-0.127
1679517982343417816,-0.062
1679517982351115110,-0.047
1679517982358812404,-0.062
1679517982366509698,-0.025
1679517982374206992,-0.018000000000000002
1679517982381904286,-0.029
1679517982389601580,0.004
1679517982397298874,0.037
1679517982404996168,0.041
1679517982412693462,0.047
1679517982420390756,0.066
1679517982428088050,0.079
1679517982435785344,0.08700000000000001
1679517982443482638,0.10400000000000001
1679517982451179932,0.133
1679517982458877226,0.147
1679517982466574520,0.14100000000000001
1679517982474271814,0.147
1679517982481969108,0.17200000000000001
1679517982489666402,0.189
1679517982497363696,0.191
1679517982505060990,0.197
1679517982512758284,0.202
1679517982520455578,0.193
1679517982528152872,0.177
1679517982535850166,0.17
1679517982543547460,0.17
1679517982551244754,0.16
1679517982558942048,0.137
1679517982566639342,0.145
1679517982574336636,0.183
1679517982582033930,0.193
1679517982589731224,0.191
1679517982597428518,0.21
1679517982605125812,0.216
1679517982612823106,0.187
1679517982620520400,0.154
1679517982628217732,0.14300000000000002
1679517982635914608,0.14300000000000002
1679517982643611484,0.125
1679517982651308360,0.085
1679517982659005236,0.068
1679517982666702112,0.066
1679517982674398988,0.006
1679517982682095864,-0.066
1679517982689792740,-0.066
1679517982697489616,-0.064
1679517982705186492,-0.097
1679517982712883368,-0.1
1679517982720580244,-0.079
1679517982728277120,-0.075
1679517982735973996,-0.085
1679517982743670872,-0.095
1679517982751367748,-0.093
1679517982759064624,-0.081
1679517982766761500,-0.077
1679517982774458376,-0.068
1679517982782155252,-0.054
1679517982789852128,-0.058
1679517982797549004,-0.07
1679517982805245880,-0.06
1679517982812942756,-0.056
1679517982820639632,-0.112
1679517982828336508,-0.187
1679517982836033384,-0.20800000000000002
1679517982843730260,-0.187
1679517982851427136,-0.189
1679517982859124012,-0.20400000000000001
1679517982866820888,-0.166
1679517982874517764,-0.097
1679517982882214640,-0.079
1679517982889911516,-0.085
1679517982897608392,-0.047
1679517982905305268,-0.031
1679517982913002144,-0.075
1679517982920699020,-0.10200000000000001
1679517982928395896,-0.075
1679517982936092772,-0.052000000000000005
1679517982943789648,-0.054
1679517982951486524,-0.043000000000000003
1679517982959183400,-0.014
1679517982966880276,0.0
1679517982974577152,0.0
1679517982982274028,0.047
1679517982989970904,0.241
1679517982997667780,0.56
1679517983005364656,0.837
1679517983013061532,0.8180000000000001
1679517983020758408,0.222
1679517983028455284,-0.56
1679517983036152160,-0.554
1679517983043849036,0.004
1679517983051545912,0.145
1679517983059242788,0.018000000000000002
1679517983066939664,0.052000000000000005
1679517983074636540,0.079
1679517983082333416,0.031
1679517983090030292,0.041
1679517983097727168,0.07200000000000001
1679517983105424044,0.07
1679517983113120920,0.075
1679517983120817796,0.089
1679517983128514672,0.095
1679517983136211548,0.11
1679517983143908424,0.137
1679517983151605300,0.145
1679517983159302176,0.135
1679517983166999052,0.145
1679517983174695928,0.17200000000000001
1679517983182392804,0.185
1679517983190089720,0.187,70,788
1679517983197787014,0.20400000000000001
1679517983205484308,0.214
1679517983213181602,0.20600000000000002
1679517983220878896,0.20800000000000002
1679517983228576190,0.231
1679517983236273484,0.23900000000000002
1679517983243970778,0.222
1679517983251668072,0.195
1679517983259365366,0.185
1679517983267062660,0.17500000000000002
1679517983274759954,0.129
1679517983282457248,0.079
1679517983290154542,0.079
1679517983297851836,0.093
1679517983305549130,0.095
1679517983313246424,0.106
1679517983320943718,0.089
1679517983328641012,0.008
1679517983336338306,-0.079
1679517983344035600,-0.114
1679517983351732894,-0.12
1679517983359430188,-0.11800000000000001
1679517983367127482,-0.11
1679517983374824776,-0.106
1679517983382522070,-0.114
1679517983390219364,-0.129
1679517983397916658,-0.152
1679517983405613952,-0.16
1679517983413311246,-0.145
1679517983421008540,-0.139
1679517983428705834,-0.152
1679517983436403128,-0.154
1679517983444100422,-0.14100000000000001
1679517983451797716,-0.133
1679517983459495010,-0.131
1679517983467192304,-0.12
1679517983474889598,-0.11
1679517983482586892,-0.11800000000000001
1679517983490284186,-0.122
1679517983497981480,-0.106
1679517983505678774,-0.091
1679517983513376068,-0.093
1679517983521073362,-0.095
1679517983528770656,-0.08700000000000001
1679517983536467950,-0.077
1679517983544165244,-0.075
1679517983551862538,-0.07200000000000001
1679517983559559832,-0.062
1679517983567257126,-0.079
1679517983574954420,-0.12
1679517983582651714,-0.122
1679517983590349008,-0.083
1679517983598046302,-0.06
1679517983605743596,-0.05
1679517983613440890,-0.025
1679517983621138184,-0.006
1679517983628835478,0.0
1679517983636532772,-0.008
1679517983644230066,-0.031
1679517983651927360,-0.054
1679517983659624654,-0.047
1679517983667321948,-0.031
1679517983675019242,-0.035
1679517983682716536,-0.037
1679517983690413830,-0.01
1679517983698111124,0.018000000000000002
1679517983705808418,0.025
1679517983713505712,0.07200000000000001
1679517983721203006,0.23500000000000001
1679517983728900300,0.522
1679517983736597594,0.804
1679517983744294888,0.8250000000000001
1679517983751992222,0.266
1679517983759689516,-0.529
1679517983767386810,-0.5660000000000001
1679517983775084104,-0.012
1679517983782781398,0.152
1679517983790478692,0.018000000000000002
1679517983798175986,0.064
1679517983805873280,0.122
1679517983813570574,0.06
1679517983821267868,0.033
1679517983828965162,0.031
1679517983836662456,-0.031
1679517983844359750,-0.10400000000000001
1679517983852057044,-0.145
1679517983859754338,-0.131
1679517983867451632,-0.081
1679517983875148926,-0.066
1679517983882846220,-0.066
1679517983890543514,-0.041
1679517983898240808,-0.029
1679517983905938102,-0.031
1679517983913635396,-0.01
1679517983921332690,0.022
1679517983929029984,0.035
1679517983936727278,0.039
1679517983944424572,0.05
1679517983952121866,0.066
1679517983959819160,0.077
1679517983967516454,0.077
1679517983975213748,0.083
1679517983982911042,0.091
1679517983990608336,0.06
1679517983998305630,0.02
1679517984006002924,0.033
1679517984013700218,0.064
1679517984021397512,0.083
1679517984029094806,0.10400000000000001
1679517984036792100,0.116
1679517984044489394,0.147
1679517984052186688,0.202
1679517984059883982,0.195
1679517984067581276,0.145
1679517984075278570,0.116
1679517984082975864,0.081
1679517984090673158,0.054
1679517984098370452,0.066
1679517984106067746,0.07200000000000001
1679517984113765040,0.035
1679517984121462334,-0.008
1679517984129159628,-0.033
1679517984136856922,-0.037
1679517984144554216,-0.01
1679517984152251510,0.012
1679517984159948804,0.008
1679517984167646098,0.0
1679517984175343392,-0.01
1679517984183040686,-0.018000000000000002
1679517984190737980,-0.01
1679517984198435274,-0.002
1679517984206132568,-0.014
1679517984213829862,-0.029
1679517984221527156,-0.031
1679517984229224450,-0.033
1679517984236921744,-0.041
1679517984244619038,-0.035
1679517984252316332,-0.018000000000000002
1679517984260013626,-0.018000000000000002
1679517984267710920,-0.035
1679517984275408214,-0.029
1679517984283105508,-0.006
1679517984290802802,0.002
1679517984298500096,-0.01
1679517984306197390,-0.031
1679517984313894724,-0.06,70,768
1679517984321591600,-0.068
1679517984329288476,-0.07200000000000001
1679517984336985352,-0.11
1679517984344682228,-0.152
1679517984352379104,-0.156
1679517984360075980,-0.15
1679517984367772856,-0.147
1679517984375469732,-0.131
1679517984383166608,-0.14300000000000002
1679517984390863484,-0.177
1679517984398560360,-0.17
1679517984406257236,-0.139
1679517984413954112,-0.127
1679517984421650988,-0.108
1679517984429347864,-0.068
1679517984437044740,-0.054
1679517984444741616,-0.089
1679517984452438492,-0.114
1679517984460135368,-0.093
1679517984467832244,-0.068
1679517984475529120,-0.064
1679517984483225996,-0.043000000000000003
1679517984490922872,-0.006
1679517984498619748,0.012
1679517984506316624,0.027
1679517984514013500,0.116
1679517984521710376,0.35000000000000003
1679517984529407252,0.662
1679517984537104128,0.877
1679517984544801004,0.704
1679517984552497880,-0.047
1679517984560194756,-0.685
1679517984567891632,-0.435
1679517984575588508,0.052000000000000005
1679517984583285384,0.054
1679517984590982260,-0.043000000000000003
1679517984598679136,0.02
1679517984606376012,0.052000000000000005
1679517984614072888,0.045
1679517984621769764,0.075
1679517984629466640,0.08700000000000001
1679517984637163516,0.079
1679517984644860392,0.089
1679517984652557268,0.10200000000000001
1679517984660254144,0.106
1679517984667951020,0.122
1679517984675647896,0.145
1679517984683344772,0.139
1679517984691041648,0.133
1679517984698738524,0.158
1679517984706435400,0.191
1679517984714132276,0.202
1679517984721829152,0.20400000000000001
1679517984729526028,0.212
1679517984737222904,0.222
1679517984744919780,0.225
1679517984752616656,0.229
1679517984760313532,0.241
1679517984768010408,0.247
1679517984775707284,0.225
1679517984783404160,0.20600000000000002
1679517984791101036,0.20400000000000001
1679517984798797912,0.17
1679517984806494788,0.11800000000000001
1679517984814191664,0.10200000000000001
1679517984821888540,0.112
1679517984829585416,0.11800000000000001
1679517984837282292,0.114
1679517984844979168,0.079
1679517984852676044,0.052000000000000005
1679517984860372920,0.056
1679517984868069796,0.022
1679517984875766708,-0.033
1679517984883464002,-0.027
1679517984891161296,0.008
1679517984898858590,0.01
1679517984906555884,-0.002
1679517984914253178,-0.029
1679517984921950472,-0.085
1679517984929647766,-0.129
1679517984937345060,-0.127
1679517984945042354,-0.114
1679517984952739648,-0.129
1679517984960436942,-0.15
1679517984968134236,-0.14100000000000001
1679517984975831530,-0.125
1679517984983528824,-0.125
1679517984991226118,-0.122
1679517984998923412,-0.112
1679517985006620706,-0.112
1679517985014318000,-0.12
1679517985022015294,-0.114
1679517985029712588,-0.095
1679517985037409882,-0.089
1679517985045107176,-0.112
1679517985052804470,-0.137
1679517985060501764,-0.127
1679517985068199058,-0.108
1679517985075896352,-0.106
1679517985083593646,-0.095
1679517985091290940,-0.075
1679517985098988234,-0.07200000000000001
1679517985106685528,-0.081
1679517985114382822,-0.062
1679517985122080116,-0.035
1679517985129777410,-0.022
1679517985137474704,-0.02
1679517985145171998,-0.02
1679517985152869292,-0.008
1679517985160566586,0.008
1679517985168263880,0.014
1679517985175961174,0.027
1679517985183658468,0.045
1679517985191355762,0.043000000000000003
1679517985199053056,0.033
1679517985206750350,0.05
1679517985214447644,0.077
1679517985222144938,0.081
1679517985229842232,0.077
1679517985237539526,0.081
1679517985245236820,0.089
1679517985252934114,0.097
1679517985260631408,0.10400000000000001
1679517985268328702,0.12
1679517985276025996,0.139
1679517985283723290,0.133
1679517985291420584,0.106
1679517985299117878,0.108
1679517985306815172,0.139
1679517985314512466,0.154
1679517985322209760,0.154
1679517985329907054,0.15
1679517985337604348,0.127
1679517985345301642,0.091
1679517985352998936,0.045
1679517985360696230,0.018000000000000002
1679517985368393524,0.02
1679517985376090818,0.016
1679517985383788112,0.012
1679517985391485406,0.037
1679517985399182700,0.068
1679517985406879994,0.14300000000000002
1679517985414577288,0.368
1679517985422274582,0.6930000000000001
1679517985429971876,0.925
1679517985437669210,0.754,71,726
1679517985445366504,0.002
1679517985453063798,-0.587
1679517985460761092,-0.28300000000000003
1679517985468458386,0.15
1679517985476155680,0.081
1679517985483852974,0.012
1679517985491550268,0.091
1679517985499247562,0.047
1679517985506944856,-0.002
1679517985514642150,0.041
1679517985522339444,0.05
1679517985530036738,0.02
1679517985537734032,0.016
1679517985545431326,0.014
1679517985553128620,0.01
1679517985560825914,0.01
1679517985568523208,0.027
1679517985576220502,0.05
1679517985583917796,0.06
1679517985591615090,0.07200000000000001
1679517985599312384,0.097
1679517985607009678,0.106
1679517985614706972,0.10400000000000001
1679517985622404266,0.11800000000000001
1679517985630101560,0.14300000000000002
1679517985637798854,0.15
1679517985645496148,0.139
1679517985653193442,0.127
1679517985660890736,0.129
1679517985668588030,0.135
1679517985676285324,0.129
1679517985683982618,0.12
1679517985691679912,0.125
1679517985699377206,0.114
1679517985707074500,0.095
1679517985714771794,0.10400000000000001
1679517985722469088,0.133
1679517985730166382,0.156
1679517985737863676,0.15
1679517985745560970,0.135
1679517985753258264,0.135
1679517985760955558,0.131
1679517985768652852,0.1
1679517985776350146,0.077
1679517985784047440,0.064
1679517985791744734,0.033
1679517985799442028,-0.004
1679517985807139322,-0.012
1679517985814836616,0.0
1679517985822533910,-0.016
1679517985830231204,-0.052000000000000005
1679517985837928498,-0.058
1679517985845625792,-0.056
1679517985853323086,-0.095
1679517985861020380,-0.168
1679517985868717674,-0.191
1679517985876414968,-0.154
1679517985884112262,-0.14300000000000002
1679517985891809556,-0.158
1679517985899506850,-0.139
1679517985907204144,-0.116
1679517985914901438,-0.125
1679517985922598732,-0.131
1679517985930296026,-0.12
1679517985937993320,-0.114
1679517985945690614,-0.114
1679517985953387908,-0.10200000000000001
1679517985961085202,-0.081
1679517985968782496,-0.07200000000000001
1679517985976479790,-0.083
1679517985984177084,-0.083
1679517985991874378,-0.058
1679517985999571712,-0.039
1679517986007268588,-0.035
1679517986014965464,-0.029
1679517986022662340,-0.035
1679517986030359216,-0.093
1679517986038056092,-0.164
1679517986045752968,-0.166
1679517986053449844,-0.129
1679517986061146720,-0.127
1679517986068843596,-0.145
1679517986076540472,-0.133
1679517986084237348,-0.10200000000000001
1679517986091934224,-0.085
1679517986099631100,-0.079
1679517986107327976,-0.064
1679517986115024852,-0.052000000000000005
1679517986122721728,-0.05
1679517986130418604,-0.041
1679517986138115480,-0.018000000000000002
1679517986145812356,0.002
1679517986153509232,0.006
1679517986161206108,0.0
1679517986168902984,0.012
1679517986176599860,0.037
1679517986184296736,0.045
1679517986191993612,0.047
1679517986199690488,0.064
1679517986207387364,0.07
1679517986215084240,0.064
1679517986222781116,0.077
1679517986230477992,0.10400000000000001
1679517986238174868,0.11800000000000001
1679517986245871744,0.122
1679517986253568620,0.135
1679517986261265496,0.154
1679517986268962372,0.17200000000000001
1679517986276659248,0.162
1679517986284356124,0.11800000000000001
1679517986292053000,0.08700000000000001
1679517986299749876,0.079
1679517986307446752,0.077
1679517986315143628,0.081
1679517986322840504,0.1
1679517986330537380,0.112
1679517986338234256,0.11
1679517986345931132,0.114
1679517986353628008,0.181
1679517986361324884,0.354
1679517986369021760,0.597
1679517986376718636,0.8200000000000001
1679517986384415512,0.8
1679517986392112388,0.17500000000000002
1679517986399809264,-0.593
1679517986407506140,-0.487
1679517986415203016,0.07
1679517986422899892,0.112
1679517986430596768,-0.031
1679517986438293644,0.05
1679517986445990520,0.097
1679517986453687396,0.054
1679517986461384272,0.077
1679517986469081148,0.12
1679517986476778024,0.122
1679517986484474900,0.11
1679517986492171776,0.116
1679517986499868652,0.139
1679517986507565528,0.162
1679517986515262404,0.17500000000000002
1679517986522959280,0.16
1679517986530656156,0.135
1679517986538353032,0.137
1679517986546049908,0.15
1679517986553746784,0.158
1679517986561443698,0.177,72,731
1679517986569140713,0.191
1679517986576837728,0.179
1679517986584534743,0.164
1679517986592231758,0.177
1679517986599928773,0.20800000000000002
1679517986607625788,0.216
1679517986615322803,0.2
1679517986623019818,0.187
1679517986630716833,0.152
1679517986638413848,0.08700000000000001
1679517986646110863,0.058
1679517986653807878,0.07200000000000001
1679517986661504893,0.066
1679517986669201908,0.041
1679517986676898923,0.064
1679517986684595938,0.116
1679517986692292953,0.137
1679517986699989968,0.137
1679517986707686983,0.139
1679517986715383998,0.114
1679517986723081013,0.077
1679517986730778028,0.07
1679517986738475043,0.08700000000000001
1679517986746172058,0.081
1679517986753869073,0.05
1679517986761566088,0.012
1679517986769263103,-0.031
1679517986776960118,-0.064
1679517986784657133,-0.07
1679517986792354148,-0.07
1679517986800051163,-0.075
1679517986807748178,-0.081
1679517986815445193,-0.091
1679517986823142208,-0.08700000000000001
1679517986830839223,-0.07
1679517986838536238,-0.066
1679517986846233253,-0.085
1679517986853930268,-0.106
1679517986861627283,-0.1
1679517986869324298,-0.097
1679517986877021313,-0.139
1679517986884718328,-0.17200000000000001
1679517986892415343,-0.156
1679517986900112358,-0.154
1679517986907809373,-0.17
1679517986915506388,-0.154
1679517986923203403,-0.12
1679517986930900418,-0.11
1679517986938597433,-0.112
1679517986946294448,-0.106
1679517986953991463,-0.091
1679517986961688478,-0.081
1679517986969385493,-0.075
1679517986977082508,-0.056
1679517986984779523,-0.037
1679517986992476538,-0.043000000000000003
1679517987000173553,-0.045
1679517987007870568,-0.035
1679517987015567583,-0.05
1679517987023264598,-0.075
1679517987030961613,-0.07200000000000001
1679517987038658628,-0.06
1679517987046355643,-0.054
1679517987054052658,-0.045
1679517987061749673,-0.033
1679517987069446688,-0.016
1679517987077143703,-0.004
1679517987084840718,-0.014
1679517987092537733,-0.012
1679517987100234748,0.016
1679517987107931763,0.039
1679517987115628778,0.039
1679517987123325854,0.039,73,798
1679517987131023009,0.031
1679517987138720164,0.031
1679517987146417319,0.058
1679517987154114474,0.081
1679517987161811629,0.085
1679517987169508784,0.095
1679517987177205939,0.089
1679517987184903094,0.081
1679517987192600249,0.10200000000000001
1679517987200297404,0.10200000000000001
1679517987207994559,0.058
1679517987215691714,0.035
1679517987223388869,0.056
1679517987231086024,0.075
1679517987238783179,0.081
1679517987246480334,0.10200000000000001
1679517987254177489,0.12
1679517987261874644,0.064
1679517987269571799,-0.022
1679517987277268954,-0.031
1679517987284966109,0.006
1679517987292663264,0.006
1679517987300360419,0.002
1679517987308057574,0.022
1679517987315754729,0.031
1679517987323451884,0.029
1679517987331149039,0.081
1679517987338846194,0.254
1679517987346543349,0.539
1679517987354240504,0.795
1679517987361937659,0.8250000000000001
1679517987369634814,0.308
1679517987377331969,-0.537
1679517987385029124,-0.679
1679517987392726279,-0.145
1679517987400423434,0.029
1679517987408120589,-0.125
1679517987415817744,-0.095
1679517987423514899,-0.016
1679517987431212054,-0.033
1679517987438909209,-0.022
1679517987446606364,0.006
1679517987454303519,0.002
1679517987462000674,0.012
1679517987469697829,0.037
1679517987477394984,0.039
1679517987485092139,0.05
1679517987492789294,0.079
1679517987500486449,0.081
1679517987508183604,0.058
1679517987515880759,0.054
1679517987523577914,0.081
1679517987531275069,0.097
1679517987538972224,0.093
1679517987546669379,0.1
1679517987554366534,0.11800000000000001
1679517987562063689,0.129
1679517987569760844,0.133
1679517987577457999,0.147
1679517987585155154,0.158
1679517987592852309,0.14300000000000002
1679517987600549464,0.125
1679517987608246619,0.129
1679517987615943774,0.139
1679517987623640929,0.133
1679517987631338084,0.116
1679517987639035239,0.112
1679517987646732394,0.131
1679517987654429549,0.16
1679517987662126704,0.183
1679517987669823859,0.212
1679517987677521014,0.23500000000000001
1679517987685218184,0.216
1679517987692915339,0.17
1679517987700612494,0.147
1679517987708309649,0.145
1679517987716006804,0.137
1679517987723703959,0.11800000000000001
1679517987731401114,0.097
1679517987739098269,0.08700000000000001
1679517987746795424,0.068
1679517987754492579,0.014
1679517987762189734,-0.025
1679517987769886889,-0.045
1679517987777584044,-0.097
1679517987785281199,-0.135
1679517987792978354,-0.116
1679517987800675509,-0.11
1679517987808372664,-0.11800000000000001
1679517987816069819,-0.11
1679517987823766974,-0.108
1679517987831464129,-0.116
1679517987839161284,-0.11800000000000001
1679517987846858439,-0.108
1679517987854555594,-0.093
1679517987862252749,-0.097
1679517987869949904,-0.116
1679517987877647059,-0.129
1679517987885344214,-0.162
1679517987893041369,-0.214
1679517987900738524,-0.22
1679517987908435679,-0.2
1679517987916132834,-0.20600000000000002
1679517987923829989,-0.216
1679517987931527144,-0.20600000000000002
1679517987939224299,-0.185
1679517987946921454,-0.164
1679517987954618609,-0.158
1679517987962315764,-0.164
1679517987970012919,-0.154
1679517987977710074,-0.122
1679517987985407229,-0.097
1679517987993104384,-0.093
1679517988000801539,-0.108
1679517988008498694,-0.122
1679517988016195849,-0.11800000000000001
1679517988023893004,-0.10400000000000001
1679517988031590159,-0.081
1679517988039287314,-0.066
1679517988046984469,-0.064
1679517988054681624,-0.062
1679517988062378779,-0.047
1679517988070075934,-0.029
1679517988077773089,-0.018000000000000002
1679517988085470244,-0.012
1679517988093167399,0.002
1679517988100864554,0.004
1679517988108561709,-0.006
1679517988116258864,0.012
1679517988123956019,0.043000000000000003
1679517988131653174,0.05
1679517988139350329,0.041
1679517988147047484,0.05
1679517988154744639,0.064
1679517988162441794,0.075
1679517988170138949,0.079
1679517988177836104,0.095
1679517988185533259,0.129
1679517988193230414,0.14100000000000001
1679517988200927569,0.14100000000000001
1679517988208624724,0.156
1679517988216321879,0.147
1679517988224019034,0.114
1679517988231716189,0.106
1679517988239413344,0.10400000000000001
1679517988247110512,0.068,73,893
1679517988254807458,0.037,,948
1679517988262504404,0.047
1679517988270201350,0.066
1679517988277898296,0.07
1679517988285595242,0.095
1679517988293292188,0.243
1679517988300989134,0.531
1679517988308686080,0.791
1679517988316383026,0.679
1679517988324079972,-0.022
1679517988331776918,-0.66
1679517988339473864,-0.47000000000000003
1679517988347170810,-0.027
1679517988354867756,0.012
1679517988362564702,-0.041
1679517988370261648,0.033
1679517988377958594,0.05
1679517988385655540,-0.022
1679517988393352486,-0.066
1679517988401049432,-0.047
1679517988408746378,-0.022
1679517988416443324,-0.02
1679517988424140270,-0.014
1679517988431837216,-0.002
1679517988439534162,0.01
1679517988447231108,0.033
1679517988454928054,0.06
1679517988462625000,0.068
1679517988470321946,0.064
1679517988478018892,0.077
1679517988485715838,0.097
1679517988493412784,0.085
1679517988501109730,0.07200000000000001
1679517988508806676,0.095
1679517988516503622,0.108
1679517988524200568,0.093
1679517988531897514,0.097
1679517988539594460,0.122
1679517988547291406,0.133
1679517988554988352,0.125
1679517988562685298,0.106
1679517988570382244,0.10200000000000001
1679517988578079190,0.106
1679517988585776136,0.10200000000000001
1679517988593473082,0.10200000000000001
1679517988601170028,0.12
1679517988608866974,0.135
1679517988616563920,0.145
1679517988624260866,0.168
1679517988631957812,0.191
1679517988639654758,0.177
1679517988647351704,0.129
1679517988655048650,0.095
1679517988662745596,0.097
1679517988670442542,0.1
1679517988678139488,0.075
1679517988685836434,0.058
1679517988693533380,0.054
1679517988701230326,0.022
1679517988708927272,-0.01
1679517988716624218,-0.006
1679517988724321164,0.01
1679517988732018110,0.004
1679517988739715056,-0.029
1679517988747412002,-0.06
1679517988755108948,-0.058
1679517988762805894,-0.054
1679517988770502840,-0.064
1679517988778199786,-0.056
1679517988785896732,-0.047
1679517988793593678,-0.064
1679517988801290624,-0.07200000000000001
1679517988808987582,-0.054
1679517988816684528,-0.039
1679517988824381474,-0.043000000000000003
1679517988832078420,-0.047
1679517988839775366,-0.045
1679517988847472312,-0.056
1679517988855169258,-0.091
1679517988862866204,-0.116
1679517988870563150,-0.10200000000000001
1679517988878260096,-0.085
1679517988885957042,-0.10400000000000001
1679517988893653988,-0.15
1679517988901350934,-0.193
1679517988909047880,-0.197
1679517988916744826,-0.193
1679517988924441772,-0.214
1679517988932138718,-0.216
1679517988939835664,-0.168
1679517988947532610,-0.127
1679517988955229556,-0.116
1679517988962926502,-0.097
1679517988970623448,-0.081
1679517988978320394,-0.10200000000000001
1679517988986017340,-0.129
1679517988993714286,-0.127
1679517989001411232,-0.106
1679517989009108178,-0.095
1679517989016805124,-0.091
1679517989024502070,-0.083
1679517989032199016,-0.062
1679517989039895962,-0.035
1679517989047592908,-0.002
1679517989055289854,0.033
1679517989062986800,0.025
1679517989070683746,-0.025
1679517989078380692,-0.035
1679517989086077638,0.002
1679517989093774584,0.014
1679517989101471530,0.01
1679517989109168476,0.025
1679517989116865422,0.039
1679517989124562368,0.043000000000000003
1679517989132259314,0.091
1679517989139956260,0.258
1679517989147653206,0.554
1679517989155350152,0.833
1679517989163047098,0.877
1679517989170744044,0.397
1679517989178440990,-0.383
1679517989186137936,-0.529
1679517989193834882,-0.029
1679517989201531828,0.187
1679517989209228774,0.06
1679517989216925720,0.058
1679517989224622666,0.125
1679517989232319612,0.097
1679517989240016558,0.068
1679517989247713504,0.081
1679517989255410450,0.079
1679517989263107396,0.081
1679517989270804342,0.10200000000000001
1679517989278501288,0.114
1679517989286198234,0.12
1679517989293895180,0.14100000000000001
1679517989301592126,0.145
1679517989309289072,0.139
1679517989316986018,0.158
1679517989324682964,0.189
1679517989332379910,0.197
1679517989340076856,0.197
1679517989347773802,0.20400000000000001
1679517989355470748,0.214
1679517989363167694,0.22
1679517989370864654,0.229,72,979
1679517989378561600,0.23900000000000002
1679517989386258546,0.233
1679517989393955492,0.166
1679517989401652438,0.06
1679517989409349384,-0.002
1679517989417046330,-0.002
1679517989424743276,-0.006
1679517989432440222,-0.025
1679517989440137168,-0.025
1679517989447834114,-0.002
1679517989455531060,0.02
1679517989463228006,0.052000000000000005
1679517989470924952,0.079
1679517989478621898,0.058
1679517989486318844,0.002
1679517989494015790,-0.029
1679517989501712736,-0.033
1679517989509409682,-0.033
1679517989517106628,-0.037
1679517989524803574,-0.043000000000000003
1679517989532500520,-0.052000000000000005
1679517989540197466,-0.062
1679517989547894412,-0.079
1679517989555591358,-0.097
1679517989563288304,-0.08700000000000001
1679517989570985250,-0.085
1679517989578682196,-0.106
1679517989586379142,-0.108
1679517989594076088,-0.085
1679517989601773034,-0.083
1679517989609469980,-0.091
1679517989617166926,-0.083
1679517989624863872,-0.083
1679517989632560818,-0.1
1679517989640257764,-0.10200000000000001
1679517989647954710,-0.081
1679517989655651656,-0.062
1679517989663348602,-0.07
1679517989671045548,-0.085
1679517989678742494,-0.077
1679517989686439440,-0.058
1679517989694136386,-0.058
1679517989701833332,-0.06
1679517989709530278,-0.045
1679517989717227224,-0.047
1679517989724924170,-0.07200000000000001
1679517989732621116,-0.079
1679517989740318062,-0.056
1679517989748015008,-0.043000000000000003
1679517989755711954,-0.05
1679517989763408900,-0.056
1679517989771105846,-0.045
1679517989778802792,-0.029
1679517989786499738,-0.031
1679517989794196684,-0.027
1679517989801893630,-0.006
1679517989809590576,0.002
1679517989817287522,-0.002
1679517989824984468,0.004
1679517989832681414,0.022
1679517989840378360,0.035
1679517989848075306,0.033
1679517989855772252,0.029
1679517989863469198,0.041
1679517989871166144,0.056
1679517989878863090,0.06
1679517989886560036,0.07200000000000001
1679517989894256982,0.10200000000000001
1679517989901953928,0.10200000000000001
1679517989909650874,0.056
1679517989917347820,0.035
1679517989925044766,0.06
1679517989932741726,0.043000000000000003
1679517989940438950,-0.002
1679517989948136174,-0.006
1679517989955833398,0.018000000000000002
1679517989963530622,0.018000000000000002
1679517989971227846,0.002
1679517989978925070,0.0
1679517989986622294,0.002
1679517989994319518,-0.029
1679517990002016742,-0.002
1679517990009713966,0.218
1679517990017411190,0.533
1679517990025108414,0.739
1679517990032805638,0.6
1679517990040502862,-0.077
1679517990048200086,-0.6910000000000001
1679517990055897310,-0.47200000000000003
1679517990063594534,0.008
1679517990071291758,0.031
1679517990078988982,-0.054
1679517990086686206,0.012
1679517990094383430,0.037
1679517990102080654,0.027
1679517990109777878,0.06
1679517990117475102,0.081
1679517990125172326,0.083
1679517990132869550,0.095
1679517990140566774,0.10400000000000001
1679517990148263998,0.108
1679517990155961222,0.125
1679517990163658446,0.15
1679517990171355670,0.158
1679517990179052894,0.152
1679517990186750118,0.16
1679517990194447342,0.187
1679517990202144566,0.202
1679517990209841790,0.193
1679517990217539014,0.177
1679517990225236238,0.156
1679517990232933462,0.15
1679517990240630686,0.156
1679517990248327910,0.168
1679517990256025134,0.177
1679517990263722358,0.168
1679517990271419582,0.145
1679517990279116806,0.14300000000000002
1679517990286814030,0.152
1679517990294511254,0.145
1679517990302208478,0.139
1679517990309905702,0.15
1679517990317602926,0.158
1679517990325300150,0.166
1679517990332997374,0.195
1679517990340694598,0.231
1679517990348391822,0.243
1679517990356089046,0.222
1679517990363786270,0.179
1679517990371483494,0.16
1679517990379180718,0.17
1679517990386877942,0.164
1679517990394575166,0.14300000000000002
1679517990402272390,0.11
1679517990409969614,0.033
1679517990417666838,-0.047
1679517990425364062,-0.06
1679517990433061286,-0.041
1679517990440758510,-0.054
1679517990448455734,-0.075
1679517990456152958,-0.093
1679517990463850182,-0.125
1679517990471547406,-0.154
1679517990479244630,-0.152
1679517990486941854,-0.135
1679517990494639142,-0.129,71,951
1679517990502336018,-0.14100000000000001
1679517990510032894,-0.147
1679517990517729770,-0.129
1679517990525426646,-0.11
1679517990533123522,-0.106
1679517990540820398,-0.11
1679517990548517274,-0.11
1679517990556214150,-0.11
1679517990563911026,-0.137
1679517990571607902,-0.17
1679517990579304778,-0.156
1679517990587001654,-0.135
1679517990594698530,-0.152
1679517990602395406,-0.154
1679517990610092282,-0.122
1679517990617789158,-0.1
1679517990625486034,-0.097
1679517990633182910,-0.095
1679517990640879786,-0.091
1679517990648576662,-0.08700000000000001
1679517990656273538,-0.081
1679517990663970414,-0.068
1679517990671667290,-0.047
1679517990679364166,-0.037
1679517990687061042,-0.045
1679517990694757918,-0.043000000000000003
1679517990702454794,-0.031
1679517990710151670,-0.05
1679517990717848546,-0.075
1679517990725545422,-0.064
1679517990733242298,-0.047
1679517990740939174,-0.047
1679517990748636050,-0.037
1679517990756332926,-0.01
1679517990764029802,0.01
1679517990771726678,0.025
1679517990779423554,0.037
1679517990787120430,0.052000000000000005
1679517990794817306,0.081
1679517990802514182,0.095
1679517990810211058,0.07200000000000001
1679517990817907934,0.047
1679517990825604810,0.052000000000000005
1679517990833301686,0.058
1679517990840998562,0.066
1679517990848695438,0.091
1679517990856392314,0.112
1679517990864089190,0.11
1679517990871786066,0.112
1679517990879482942,0.185
1679517990887179818,0.385
1679517990894876694,0.664
1679517990902573570,0.881
1679517990910270446,0.775
1679517990917967322,0.081
1679517990925664198,-0.637
1679517990933361074,-0.502
1679517990941057950,0.01
1679517990948754826,0.066
1679517990956451702,-0.062
1679517990964148578,-0.027
1679517990971845454,0.014
1679517990979542330,0.0
1679517990987239206,0.016
1679517990994936082,0.047
1679517991002632958,0.06
1679517991010329834,0.06
1679517991018026710,0.062
1679517991025723586,0.079
1679517991033420462,0.10400000000000001
1679517991041117338,0.11800000000000001
1679517991048814214,0.11800000000000001
1679517991056511126,0.122,70,850
1679517991064208281,0.139
1679517991071905436,0.152
1679517991079602591,0.162
1679517991087299746,0.185
1679517991094996901,0.193
1679517991102694056,0.15
1679517991110391211,0.097
1679517991118088366,0.097
1679517991125785521,0.116
1679517991133482676,0.114
1679517991141179831,0.11
1679517991148876986,0.10200000000000001
1679517991156574141,0.093
1679517991164271296,0.079
1679517991171968451,0.05
1679517991179665606,0.047
1679517991187362761,0.07
1679517991195059916,0.079
1679517991202757071,0.089
1679517991210454226,0.12
1679517991218151381,0.147
1679517991225848536,0.15
1679517991233545691,0.12
1679517991241242846,0.064
1679517991248940001,0.031
1679517991256637156,0.039
1679517991264334311,0.047
1679517991272031466,0.056
1679517991279728621,0.06
1679517991287425776,0.031
1679517991295122931,-0.016
1679517991302820086,-0.035
1679517991310517241,-0.025
1679517991318214396,-0.016
1679517991325911551,-0.022
1679517991333608706,-0.043000000000000003
1679517991341305861,-0.054
1679517991349003016,-0.056
1679517991356700171,-0.056
1679517991364397326,-0.045
1679517991372094481,-0.045
1679517991379791636,-0.066
1679517991387488791,-0.07
1679517991395185946,-0.052000000000000005
1679517991402883101,-0.035
1679517991410580256,-0.045
1679517991418277411,-0.089
1679517991425974566,-0.125
1679517991433671721,-0.152
1679517991441368876,-0.17
1679517991449066031,-0.17
1679517991456763186,-0.17200000000000001
1679517991464460341,-0.183
1679517991472157496,-0.179
1679517991479854651,-0.154
1679517991487551806,-0.139
1679517991495248961,-0.154
1679517991502946116,-0.147
1679517991510643271,-0.08700000000000001
1679517991518340426,-0.054
1679517991526037581,-0.075
1679517991533734736,-0.07
1679517991541431891,-0.029
1679517991549129046,-0.014
1679517991556826201,-0.031
1679517991564523356,-0.031
1679517991572220511,-0.008
1679517991579917666,0.014
1679517991587614821,0.018000000000000002
1679517991595311976,0.022
1679517991603009131,0.033
1679517991610706286,0.037
1679517991618403454,0.035
1679517991626100469,0.045
1679517991633797484,0.068
1679517991641494499,0.085
1679517991649191514,0.085
1679517991656888529,0.079
1679517991664585544,0.091
1679517991672282559,0.089
1679517991679979574,0.022
1679517991687676589,-0.047
1679517991695373604,-0.079
1679517991703070619,-0.114
1679517991710767634,-0.129
1679517991718464649,-0.10400000000000001
1679517991726161664,-0.081
1679517991733858679,-0.081
1679517991741555694,-0.079
1679517991749252709,-0.043000000000000003
1679517991756949724,0.097
1679517991764646739,0.375
1679517991772343754,0.675
1679517991780040769,0.8250000000000001
1679517991787737784,0.466
1679517991795434799,-0.372
1679517991803131814,-0.6930000000000001
1679517991810828829,-0.214
1679517991818525844,0.085
1679517991826222859,-0.012
1679517991833919874,-0.006
1679517991841616889,0.07200000000000001
1679517991849313904,0.05
1679517991857010919,0.05
1679517991864707934,0.097
1679517991872404949,0.11
1679517991880101964,0.112
1679517991887798979,0.116
1679517991895495994,0.122
1679517991903193009,0.152
1679517991910890024,0.16
1679517991918587039,0.116
1679517991926284054,0.079
1679517991933981069,0.068
1679517991941678084,0.043000000000000003
1679517991949375099,0.022
1679517991957072114,0.043000000000000003
1679517991964769129,0.075
1679517991972466144,0.07200000000000001
1679517991980163159,0.066
1679517991987860174,0.091
1679517991995557189,0.122
1679517992003254204,0.127
1679517992010951219,0.11800000000000001
1679517992018648234,0.127
1679517992026345249,0.129
1679517992034042264,0.114
1679517992041739279,0.11
1679517992049436294,0.11800000000000001
1679517992057133309,0.12
1679517992064830324,0.11800000000000001
1679517992072527339,0.114
1679517992080224354,0.129
1679517992087921369,0.158
1679517992095618384,0.177
1679517992103315399,0.177
1679517992111012414,0.154
1679517992118709429,0.106
1679517992126406444,0.07
1679517992134103459,0.081
1679517992141800474,0.095
1679517992149497489,0.081
1679517992157194504,0.047
1679517992164891519,0.022
1679517992172588534,0.006
1679517992180285612,-0.002,70,867
1679517992187982906,-0.022
1679517992195680200,-0.045
1679517992203377494,-0.054
1679517992211074788,-0.083
1679517992218772082,-0.139
1679517992226469376,-0.154
1679517992234166670,-0.131
1679517992241863964,-0.127
1679517992249561258,-0.14100000000000001
1679517992257258552,-0.14100000000000001
1679517992264955846,-0.133
1679517992272653140,-0.129
1679517992280350434,-0.129
1679517992288047728,-0.11
1679517992295745022,-0.093
1679517992303442316,-0.10200000000000001
1679517992311139610,-0.108
1679517992318836904,-0.089
1679517992326534198,-0.066
1679517992334231492,-0.06
1679517992341928786,-0.058
1679517992349626080,-0.052000000000000005
1679517992357323374,-0.066
1679517992365020668,-0.1
1679517992372717962,-0.08700000000000001
1679517992380415256,-0.018000000000000002
1679517992388112550,0.029
1679517992395809844,0.014
1679517992403507138,0.006
1679517992411204432,0.033
1679517992418901726,0.033
1679517992426599020,-0.029
1679517992434296314,-0.097
1679517992441993608,-0.108
1679517992449690902,-0.081
1679517992457388196,-0.062
1679517992465085490,-0.045
1679517992472782784,-0.012
1679517992480480078,-0.01
1679517992488177372,-0.058
1679517992495874666,-0.07200000000000001
1679517992503571960,-0.035
1679517992511269254,-0.014
1679517992518966548,-0.02
1679517992526663842,-0.008
1679517992534361136,0.002
1679517992542058430,-0.002
1679517992549755724,0.02
1679517992557453018,0.139
1679517992565150312,0.41200000000000003
1679517992572847606,0.745
1679517992580544900,0.927
1679517992588242194,0.647
1679517992595939488,-0.14300000000000002
1679517992603636782,-0.618
1679517992611334076,-0.247
1679517992619031370,0.14100000000000001
1679517992626728664,0.07200000000000001
1679517992634425958,0.018000000000000002
1679517992642123252,0.10200000000000001
1679517992649820546,0.11
1679517992657517840,0.097
1679517992665215134,0.12
1679517992672912428,0.10400000000000001
1679517992680609722,0.066
1679517992688307016,0.058
1679517992696004310,0.06
1679517992703701604,0.056
1679517992711398898,0.066
1679517992719096192,0.066
1679517992726793486,0.056
1679517992734490780,0.07200000000000001
1679517992742188112,0.11
1679517992749884988,0.125
1679517992757581864,0.125
1679517992765278740,0.133
1679517992772975616,0.15
1679517992780672492,0.14300000000000002
1679517992788369368,0.108
1679517992796066244,0.097
1679517992803763120,0.116
1679517992811459996,0.108
1679517992819156872,0.08700000000000001
1679517992826853748,0.095
1679517992834550624,0.116
1679517992842247500,0.11800000000000001
1679517992849944376,0.108
1679517992857641252,0.10400000000000001
1679517992865338128,0.129
1679517992873035004,0.168
1679517992880731880,0.185
1679517992888428756,0.202
1679517992896125632,0.227
1679517992903822508,0.21
1679517992911519384,0.162
1679517992919216260,0.125
1679517992926913136,0.062
1679517992934610012,-0.016
1679517992942306888,-0.047
1679517992950003764,-0.05
1679517992957700640,-0.066
1679517992965397516,-0.089
1679517992973094392,-0.10400000000000001
1679517992980791268,-0.097
1679517992988488144,-0.089
1679517992996185020,-0.112
1679517993003881896,-0.129
1679517993011578772,-0.11800000000000001
1679517993019275648,-0.11
1679517993026972524,-0.11
1679517993034669400,-0.097
1679517993042366276,-0.10200000000000001
1679517993050063152,-0.127
1679517993057760028,-0.125
1679517993065456904,-0.08700000000000001
1679517993073153780,-0.068
1679517993080850656,-0.083
1679517993088547532,-0.093
1679517993096244408,-0.07200000000000001
1679517993103941284,-0.039
1679517993111638160,-0.025
1679517993119335036,-0.027
1679517993127031912,-0.022
1679517993134728788,-0.022
1679517993142425664,-0.029
1679517993150122540,-0.014
1679517993157819416,0.012
1679517993165516292,0.02
1679517993173213168,0.0
1679517993180910044,-0.02
1679517993188606920,-0.008
1679517993196303796,0.012
1679517993204000672,0.014
1679517993211697548,0.016
1679517993219394424,0.035
1679517993227091300,0.041
1679517993234788176,0.035
1679517993242485052,0.039
1679517993250181928,0.062
1679517993257878804,0.083
1679517993265575680,0.08700000000000001
1679517993273272556,0.081
1679517993280969432,0.1
1679517993288666308,0.133
1679517993296363184,0.14300000000000002
1679517993304060100,0.152,70,878
1679517993311757115,0.154
1679517993319454130,0.114
1679517993327151145,0.079
1679517993334848160,0.093
1679517993342545175,0.122
1679517993350242190,0.125
1679517993357939205,0.11800000000000001
1679517993365636220,0.114
1679517993373333235,0.12
1679517993381030250,0.127
1679517993388727265,0.177
1679517993396424280,0.397
1679517993404121295,0.716
1679517993411818310,0.883
1679517993419515325,0.587
1679517993427212340,-0.247
1679517993434909355,-0.8
1679517993442606370,-0.47000000000000003
1679517993450303385,-0.077
1679517993458000400,-0.147
1679517993465697415,-0.191
1679517993473394430,-0.079
1679517993481091445,-0.058
1679517993488788460,-0.066
1679517993496485475,-0.02
1679517993504182490,-0.016
1679517993511879505,-0.035
1679517993519576520,-0.006
1679517993527273535,0.025
1679517993534970550,0.025
1679517993542667565,0.025
1679517993550364580,0.037
1679517993558061595,0.047
1679517993565758610,0.054
1679517993573455625,0.077
1679517993581152640,0.112
1679517993588849655,0.135
1679517993596546670,0.139
1679517993604243685,0.152
1679517993611940700,0.181
1679517993619637715,0.197
1679517993627334730,0.195
1679517993635031745,0.189
1679517993642728760,0.17200000000000001
1679517993650425775,0.166
1679517993658122790,0.183
1679517993665819805,0.162
1679517993673516820,0.11800000000000001
1679517993681213835,0.091
1679517993688910850,0.07200000000000001
1679517993696607865,0.08700000000000001
1679517993704304880,0.125
1679517993712001895,0.133
1679517993719698910,0.15
1679517993727395925,0.195
1679517993735092940,0.20800000000000002
1679517993742789955,0.17
1679517993750486970,0.133
1679517993758183985,0.129
1679517993765881000,0.139
1679517993773578015,0.125
1679517993781275030,0.079
1679517993788972045,0.06
1679517993796669060,0.075
1679517993804366075,0.05
1679517993812063090,0.012
1679517993819760105,0.012
1679517993827457120,0.012
1679517993835154135,-0.006
1679517993842851150,-0.004
1679517993850548165,0.014
1679517993858245180,0.018000000000000002
1679517993865942256,0.004
1679517993873639202,-0.006
1679517993881336148,-0.002
1679517993889033094,0.004
1679517993896730040,-0.004
1679517993904426986,-0.025
1679517993912123932,-0.06
1679517993919820878,-0.114
1679517993927517824,-0.179
1679517993935214770,-0.245
1679517993942911716,-0.279
1679517993950608662,-0.27
1679517993958305608,-0.272
1679517993966002554,-0.279
1679517993973699500,-0.262
1679517993981396446,-0.247
1679517993989093392,-0.245
1679517993996790338,-0.225
1679517994004487284,-0.193
1679517994012184230,-0.187
1679517994019881176,-0.181
1679517994027578122,-0.154
1679517994035275068,-0.127
1679517994042972014,-0.116
1679517994050668960,-0.112
1679517994058365906,-0.1
1679517994066062852,-0.085
1679517994073759798,-0.075
1679517994081456744,-0.062
1679517994089153690,-0.041
1679517994096850636,-0.025
1679517994104547582,-0.029
1679517994112244528,-0.029
1679517994119941474,-0.006
1679517994127638420,0.014
1679517994135335366,0.014
1679517994143032312,0.014
1679517994150729258,0.01
1679517994158426204,-0.016
1679517994166123150,-0.039
1679517994173820096,-0.029
1679517994181517042,-0.008
1679517994189213988,-0.006
1679517994196910934,-0.012
1679517994204607880,-0.004
1679517994212304826,0.025
1679517994220001772,0.045
1679517994227698718,0.047
1679517994235395664,0.062
1679517994243092610,0.089
1679517994250789556,0.097
1679517994258486502,0.10400000000000001
1679517994266183448,0.11800000000000001
1679517994273880394,0.11
1679517994281577340,0.079
1679517994289274286,0.062
1679517994296971232,0.075
1679517994304668178,0.091
1679517994312365124,0.095
1679517994320062070,0.095
1679517994327759016,0.11
1679517994335455962,0.125
1679517994343152908,0.185
1679517994350849854,0.377
1679517994358546800,0.677
1679517994366243746,0.916
1679517994373940692,0.833
1679517994381637638,0.177
1679517994389334584,-0.497
1679517994397031530,-0.341
1679517994404728476,0.129
1679517994412425422,0.133
1679517994420122368,0.033
1679517994427819326,0.114,70,874
1679517994435516411,0.11800000000000001
1679517994443213496,0.031
1679517994450910581,0.02
1679517994458607666,0.058
1679517994466304751,0.047
1679517994474001836,0.033
1679517994481698921,0.052000000000000005
1679517994489396006,0.054
1679517994497093091,0.014
1679517994504790176,-0.002
1679517994512487261,0.022
1679517994520184346,0.027
1679517994527881431,0.014
1679517994535578516,0.035
1679517994543275601,0.068
1679517994550972686,0.081
1679517994558669771,0.081
1679517994566366856,0.085
1679517994574063941,0.10200000000000001
1679517994581761026,0.11800000000000001
1679517994589458111,0.122
1679517994597155196,0.131
1679517994604852281,0.139
1679517994612549366,0.12
1679517994620246451,0.1
1679517994627943536,0.106
1679517994635640621,0.11800000000000001
1679517994643337706,0.112
1679517994651034791,0.089
1679517994658731876,0.07200000000000001
1679517994666428961,0.093
1679517994674126046,0.122
1679517994681823131,0.137
1679517994689520216,0.156
1679517994697217301,0.16
1679517994704914386,0.116
1679517994712611471,0.079
1679517994720308556,0.091
1679517994728005641,0.10200000000000001
1679517994735702726,0.077
1679517994743399811,0.052000000000000005
1679517994751096896,0.043000000000000003
1679517994758793981,0.016
1679517994766491066,-0.016
1679517994774188151,-0.018000000000000002
1679517994781885236,-0.006
1679517994789582321,-0.012
1679517994797279406,-0.033
1679517994804976491,-0.037
1679517994812673576,-0.022
1679517994820370661,-0.018000000000000002
1679517994828067746,-0.025
1679517994835764831,-0.025
1679517994843461916,-0.022
1679517994851159001,-0.031
1679517994858856086,-0.033
1679517994866553171,-0.022
1679517994874250256,-0.01
1679517994881947341,-0.014
1679517994889644426,-0.045
1679517994897341511,-0.079
1679517994905038596,-0.083
1679517994912735681,-0.077
1679517994920432766,-0.081
1679517994928129851,-0.077
1679517994935826936,-0.075
1679517994943524021,-0.112
1679517994951221106,-0.158
1679517994958918191,-0.15
1679517994966615276,-0.122
1679517994974312361,-0.129
1679517994982009446,-0.139
1679517994989706570,-0.11800000000000001
1679517994997403446,-0.095
1679517995005100322,-0.089
1679517995012797198,-0.077
1679517995020494074,-0.06
1679517995028190950,-0.079
1679517995035887826,-0.131
1679517995043584702,-0.152
1679517995051281578,-0.12
1679517995058978454,-0.097
1679517995066675330,-0.106
1679517995074372206,-0.106
1679517995082069082,-0.085
1679517995089765958,-0.07200000000000001
1679517995097462834,-0.068
1679517995105159710,-0.056
1679517995112856586,-0.039
1679517995120553462,-0.035
1679517995128250338,-0.039
1679517995135947214,-0.041
1679517995143644090,-0.054
1679517995151340966,-0.07200000000000001
1679517995159037842,-0.081
1679517995166734718,-0.083
1679517995174431594,-0.066
1679517995182128470,-0.031
1679517995189825346,-0.014
1679517995197522222,-0.006
1679517995205219098,0.016
1679517995212915974,0.025
1679517995220612850,0.008
1679517995228309726,0.016
1679517995236006602,0.056
1679517995243703478,0.075
1679517995251400354,0.075
1679517995259097230,0.079
1679517995266794106,0.093
1679517995274490982,0.112
1679517995282187858,0.127
1679517995289884734,0.15
1679517995297581610,0.16
1679517995305278486,0.11800000000000001
1679517995312975362,0.075
1679517995320672238,0.08700000000000001
1679517995328369114,0.1
1679517995336065990,0.075
1679517995343762866,0.07
1679517995351459742,0.091
1679517995359156618,0.10200000000000001
1679517995366853494,0.133
1679517995374550370,0.212
1679517995382247246,0.368
1679517995389944122,0.583
1679517995397640998,0.76
1679517995405337874,0.768
1679517995413034750,0.304
1679517995420731626,-0.427
1679517995428428502,-0.493
1679517995436125378,-0.002
1679517995443822254,0.127
1679517995451519130,-0.052000000000000005
1679517995459216006,-0.068
1679517995466912882,-0.004
1679517995474609758,-0.01
1679517995482306634,-0.014
1679517995490003510,0.0
1679517995497700386,0.004
1679517995505397262,0.022
1679517995513094138,0.043000000000000003
1679517995520791014,0.047
1679517995528487890,0.07
1679517995536184766,0.091
1679517995543881642,0.079
1679517995551578554,0.081,70,802
1679517995559275430,0.12
1679517995566972306,0.147
1679517995574669182,0.14100000000000001
1679517995582366058,0.129
1679517995590062934,0.139
1679517995597759810,0.147
1679517995605456686,0.114
1679517995613153562,0.085
1679517995620850438,0.091
1679517995628547314,0.056
1679517995636244190,-0.012
1679517995643941066,0.0
1679517995651637942,0.056
1679517995659334818,0.054
1679517995667031694,0.002
1679517995674728570,-0.031
1679517995682425446,-0.002
1679517995690122322,0.031
1679517995697819198,0.029
1679517995705516074,0.052000000000000005
1679517995713212950,0.11
1679517995720909826,0.145
1679517995728606702,0.139
1679517995736303578,0.11
1679517995744000454,0.083
1679517995751697330,0.075
1679517995759394206,0.07
1679517995767091082,0.05
1679517995774787958,0.02
1679517995782484834,0.006
1679517995790181710,-0.01
1679517995797878586,-0.029
1679517995805575462,-0.029
1679517995813272338,-0.041
1679517995820969214,-0.06
1679517995828666090,-0.047
1679517995836362966,-0.029
1679517995844059842,-0.037
1679517995851756718,-0.058
1679517995859453594,-0.07200000000000001
1679517995867150470,-0.058
1679517995874847346,-0.033
1679517995882544222,-0.05
1679517995890241098,-0.07
1679517995897937974,-0.058
1679517995905634850,-0.068
1679517995913331726,-0.085
1679517995921028602,-0.068
1679517995928725478,-0.052000000000000005
1679517995936422354,-0.05
1679517995944119230,-0.054
1679517995951816106,-0.093
1679517995959512982,-0.162
1679517995967209858,-0.179
1679517995974906734,-0.145
1679517995982603610,-0.127
1679517995990300486,-0.129
1679517995997997362,-0.131
1679517996005694238,-0.12
1679517996013391114,-0.097
1679517996021087990,-0.085
1679517996028784866,-0.079
1679517996036481742,-0.064
1679517996044178618,-0.052000000000000005
1679517996051875494,-0.05
1679517996059572370,-0.041
1679517996067269246,-0.02
1679517996074966122,-0.004
1679517996082662998,-0.002
1679517996090359874,-0.012
1679517996098056750,-0.002
1679517996105753626,0.022
1679517996113450538,0.033,70,832
1679517996121147484,0.025
1679517996128844430,0.006
1679517996136541376,-0.025
1679517996144238322,-0.068
1679517996151935268,-0.097
1679517996159632214,-0.083
1679517996167329160,-0.058
1679517996175026106,-0.06
1679517996182723052,-0.062
1679517996190419998,-0.043000000000000003
1679517996198116944,-0.025
1679517996205813890,-0.022
1679517996213510836,-0.01
1679517996221207782,0.01
1679517996228904728,0.012
1679517996236601674,0.002
1679517996244298620,0.008
1679517996251995566,0.045
1679517996259692512,0.085
1679517996267389458,0.095
1679517996275086404,0.10200000000000001
1679517996282783350,0.116
1679517996290480296,0.10400000000000001
1679517996298177242,0.075
1679517996305874188,0.083
1679517996313571134,0.108
1679517996321268080,0.10200000000000001
1679517996328965026,0.08700000000000001
1679517996336661972,0.10400000000000001
1679517996344358918,0.129
1679517996352055864,0.14300000000000002
1679517996359752810,0.197
1679517996367449756,0.37
1679517996375146702,0.637
1679517996382843648,0.85
1679517996390540594,0.781
1679517996398237540,0.166
1679517996405934486,-0.529
1679517996413631432,-0.429
1679517996421328378,0.062
1679517996429025324,0.122
1679517996436722270,0.022
1679517996444419216,0.091
1679517996452116162,0.106
1679517996459813108,0.016
1679517996467510054,-0.02
1679517996475207000,-0.002
1679517996482903946,0.006
1679517996490600892,0.02
1679517996498297838,0.041
1679517996505994784,0.039
1679517996513691730,0.039
1679517996521388676,0.07200000000000001
1679517996529085622,0.093
1679517996536782568,0.097
1679517996544479514,0.108
1679517996552176460,0.114
1679517996559873406,0.108
1679517996567570352,0.11
1679517996575267298,0.133
1679517996582964244,0.164
1679517996590661190,0.181
1679517996598358136,0.183
1679517996606055082,0.187
1679517996613752028,0.187
1679517996621448974,0.16
1679517996629145920,0.129
1679517996636842866,0.127
1679517996644539812,0.12
1679517996652236758,0.097
1679517996659933704,0.085
1679517996667630650,0.093
1679517996675327610,0.108
1679517996683024834,0.112
1679517996690722058,0.10400000000000001
1679517996698419282,0.11
1679517996706116506,0.131
1679517996713813730,0.11800000000000001
1679517996721510954,0.077
1679517996729208178,0.056
1679517996736905402,0.041
1679517996744602626,-0.012
1679517996752299850,-0.07200000000000001
1679517996759997074,-0.085
1679517996767694298,-0.079
1679517996775391522,-0.112
1679517996783088746,-0.14300000000000002
1679517996790785970,-0.131
1679517996798483194,-0.116
1679517996806180418,-0.125
1679517996813877642,-0.12
1679517996821574866,-0.106
1679517996829272090,-0.11800000000000001
1679517996836969314,-0.14300000000000002
1679517996844666538,-0.129
1679517996852363762,-0.093
1679517996860060986,-0.083
1679517996867758210,-0.108
1679517996875455434,-0.131
1679517996883152658,-0.127
1679517996890849882,-0.125
1679517996898547106,-0.129
1679517996906244330,-0.106
1679517996913941554,-0.077
1679517996921638778,-0.085
1679517996929336002,-0.097
1679517996937033226,-0.077
1679517996944730450,-0.052000000000000005
1679517996952427674,-0.05
1679517996960124898,-0.081
1679517996967822122,-0.137
1679517996975519346,-0.158
1679517996983216570,-0.139
1679517996990913794,-0.129
1679517996998611018,-0.116
1679517997006308242,-0.095
1679517997014005466,-0.097
1679517997021702690,-0.1
1679517997029399914,-0.07200000000000001
1679517997037097138,-0.045
1679517997044794362,-0.041
1679517997052491586,-0.037
1679517997060188810,-0.027
1679517997067886034,-0.018000000000000002
1679517997075583258,-0.014
1679517997083280482,-0.002
1679517997090977706,0.022
1679517997098674930,0.041
1679517997106372154,0.035
1679517997114069378,0.012
1679517997121766602,0.006
1679517997129463826,0.022
1679517997137161050,0.027
1679517997144858274,0.025
1679517997152555498,0.035
1679517997160252722,0.043000000000000003
1679517997167949946,0.045
1679517997175647170,0.06
1679517997183344394,0.081
1679517997191041618,0.085
1679517997198738842,0.075
1679517997206436066,0.077
1679517997214133290,0.1
1679517997221830514,0.112
1679517997229527738,0.116
1679517997237225026,0.127,70,956
1679517997244921902,0.135
1679517997252618778,0.133
1679517997260315654,0.152
1679517997268012530,0.183
1679517997275709406,0.20400000000000001
1679517997283406282,0.20800000000000002
1679517997291103158,0.179
1679517997298800034,0.14100000000000001
1679517997306496910,0.131
1679517997314193786,0.10400000000000001
1679517997321890662,0.058
1679517997329587538,0.054
1679517997337284414,0.066
1679517997344981290,0.054
1679517997352678166,0.043000000000000003
1679517997360375042,0.054
1679517997368071918,0.14100000000000001
1679517997375768794,0.366
1679517997383465670,0.633
1679517997391162546,0.791
1679517997398859422,0.558
1679517997406556298,-0.189
1679517997414253174,-0.635
1679517997421950050,-0.241
1679517997429646926,0.127
1679517997437343802,0.018000000000000002
1679517997445040678,-0.025
1679517997452737554,0.091
1679517997460434430,0.095
1679517997468131306,0.027
1679517997475828182,-0.002
1679517997483525058,0.004
1679517997491221934,0.014
1679517997498918810,0.022
1679517997506615686,0.039
1679517997514312562,0.058
1679517997522009438,0.058
1679517997529706314,0.056
1679517997537403190,0.079
1679517997545100066,0.108
1679517997552796942,0.11800000000000001
1679517997560493818,0.12
1679517997568190694,0.129
1679517997575887570,0.145
1679517997583584446,0.156
1679517997591281322,0.164
1679517997598978198,0.17
1679517997606675074,0.147
1679517997614371950,0.106
1679517997622068826,0.1
1679517997629765702,0.125
1679517997637462578,0.125
1679517997645159454,0.106
1679517997652856330,0.1
1679517997660553206,0.097
1679517997668250082,0.091
1679517997675946958,0.08700000000000001
1679517997683643834,0.095
1679517997691340710,0.12
1679517997699037586,0.133
1679517997706734462,0.12
1679517997714431338,0.112
1679517997722128214,0.11
1679517997729825090,0.081
1679517997737521966,0.054
1679517997745218842,0.056
1679517997752915718,0.052000000000000005
1679517997760612594,0.025
1679517997768309470,0.002
1679517997776006346,0.0
1679517997783703222,-0.008
1679517997791400098,-0.035
1679517997799097010,-0.054
1679517997806793886,-0.052000000000000005
1679517997814490762,-0.041
1679517997822187638,-0.039
1679517997829884514,-0.045
1679517997837581390,-0.043000000000000003
1679517997845278266,-0.064
1679517997852975142,-0.14100000000000001
1679517997860672018,-0.20600000000000002
1679517997868368894,-0.191
1679517997876065770,-0.162
1679517997883762646,-0.181
1679517997891459522,-0.197
1679517997899156398,-0.179
1679517997906853274,-0.16
1679517997914550150,-0.158
1679517997922247026,-0.15
1679517997929943902,-0.133
1679517997937640778,-0.131
1679517997945337654,-0.135
1679517997953034530,-0.122
1679517997960731406,-0.097
1679517997968428282,-0.091
1679517997976125158,-0.135
1679517997983822034,-0.183
1679517997991518910,-0.17
1679517997999215786,-0.139
1679517998006912662,-0.139
1679517998014609538,-0.127
1679517998022306414,-0.1
1679517998030003290,-0.097
1679517998037700166,-0.10200000000000001
1679517998045397042,-0.079
1679517998053093918,-0.052000000000000005
1679517998060790794,-0.039
1679517998068487670,-0.037
1679517998076184546,-0.035
1679517998083881422,-0.016
1679517998091578298,-0.006
1679517998099275174,-0.02
1679517998106972050,-0.027
1679517998114668926,-0.01
1679517998122365802,-0.01
1679517998130062678,-0.018000000000000002
1679517998137759554,0.002
1679517998145456430,0.027
1679517998153153306,0.033
1679517998160850182,0.031
1679517998168547058,0.041
1679517998176243934,0.052000000000000005
1679517998183940810,0.056
1679517998191637686,0.064
1679517998199334562,0.083
1679517998207031438,0.097
1679517998214728314,0.089
1679517998222425190,0.089
1679517998230122066,0.112
1679517998237818942,0.131
1679517998245515818,0.139
1679517998253212694,0.158
1679517998260909570,0.17200000000000001
1679517998268606446,0.179
1679517998276303322,0.185
1679517998284000198,0.166
1679517998291697074,0.147
1679517998299393950,0.145
1679517998307090826,0.14100000000000001
1679517998314787702,0.135
1679517998322484578,0.15
1679517998330181454,0.168
1679517998337878330,0.17
1679517998345575206,0.154
1679517998353272082,0.177
1679517998360968994,0.333,70,1033
1679517998368666218,0.604
1679517998376363442,0.843
1679517998384060666,0.862
1679517998391757890,0.356
1679517998399455114,-0.406
1679517998407152338,-0.46
1679517998414849562,0.058
1679517998422546786,0.168
1679517998430244010,-0.018000000000000002
1679517998437941234,0.01
1679517998445638458,0.08700000000000001
1679517998453335682,0.035
1679517998461032906,0.025
1679517998468730130,0.077
1679517998476427354,0.075
1679517998484124578,0.014
1679517998491821802,-0.025
1679517998499519026,-0.01
1679517998507216250,0.016
1679517998514913474,0.025
1679517998522610698,0.035
1679517998530307922,0.047
1679517998538005146,0.052000000000000005
1679517998545702370,0.056
1679517998553399594,0.07
1679517998561096818,0.085
1679517998568794042,0.108
1679517998576491266,0.125
1679517998584188490,0.106
1679517998591885714,0.075
1679517998599582938,0.058
1679517998607280162,0.058
1679517998614977386,0.079
1679517998622674610,0.097
1679517998630371834,0.083
1679517998638069058,0.058
1679517998645766282,0.056
1679517998653463506,0.054
1679517998661160730,0.052000000000000005
1679517998668857954,0.064
1679517998676555178,0.07
1679517998684252402,0.083
1679517998691949626,0.106
1679517998699646850,0.112
1679517998707344074,0.106
1679517998715041298,0.08700000000000001
1679517998722738522,0.045
1679517998730435746,0.02
1679517998738132970,0.035
1679517998745830194,0.039
1679517998753527418,0.008
1679517998761224642,-0.012
1679517998768921866,-0.02
1679517998776619090,-0.041
1679517998784316314,-0.052000000000000005
1679517998792013538,-0.047
1679517998799710762,-0.041
1679517998807407986,-0.043000000000000003
1679517998815105210,-0.058
1679517998822802434,-0.07
1679517998830499658,-0.068
1679517998838196882,-0.091
1679517998845894106,-0.131
1679517998853591330,-0.156
1679517998861288554,-0.15
1679517998868985778,-0.122
1679517998876683002,-0.106
1679517998884380226,-0.10400000000000001
1679517998892077450,-0.08700000000000001
1679517998899774674,-0.083
1679517998907471898,-0.10400000000000001
1679517998915169122,-0.10200000000000001
1679517998922866408,-0.07200000000000001
1679517998930564608,-0.058
1679517998938262808,-0.062
1679517998945961008,-0.062
1679517998953659208,-0.062
1679517998961357408,-0.083
1679517998969055608,-0.127
1679517998976753808,-0.14100000000000001
1679517998984452008,-0.15
1679517998992150208,-0.212
1679517998999848408,-0.26
1679517999007546608,-0.23500000000000001
1679517999015244808,-0.212
1679517999022943008,-0.216
1679517999030641208,-0.20400000000000001
1679517999038339408,-0.17500000000000002
1679517999046037608,-0.16
1679517999053735808,-0.156
1679517999061434008,-0.14300000000000002
1679517999069132208,-0.12
1679517999076830408,-0.106
1679517999084528608,-0.122
1679517999092226808,-0.14100000000000001
1679517999099925008,-0.12
1679517999107623208,-0.097
1679517999115321408,-0.1
1679517999123019608,-0.081
1679517999130717808,-0.041
1679517999138416008,-0.037
1679517999146114208,-0.052000000000000005
1679517999153812408,-0.037
1679517999161510608,-0.004
1679517999169208808,0.014
1679517999176907008,0.014
1679517999184605208,0.016
1679517999192303408,0.033
1679517999200001608,0.045
1679517999207699808,0.047
1679517999215398008,0.062
1679517999223096208,0.083
1679517999230794408,0.08700000000000001
1679517999238492608,0.085
1679517999246190808,0.097
1679517999253889008,0.127
1679517999261587208,0.15
1679517999269285408,0.15
1679517999276983608,0.154
1679517999284681808,0.177
1679517999292380008,0.17
1679517999300078208,0.127
1679517999307776408,0.12
1679517999315474608,0.14300000000000002
1679517999323172808,0.131
1679517999330871008,0.097
1679517999338569208,0.091
1679517999346267408,0.11
1679517999353965608,0.12
1679517999361663808,0.16
1679517999369362008,0.308
1679517999377060208,0.5700000000000001
1679517999384758408,0.8220000000000001
1679517999392456608,0.87
1679517999400154808,0.42
1679517999407853008,-0.339
1679517999415551208,-0.487
1679517999423249408,-0.01
1679517999430947608,0.197
1679517999438645808,0.097
1679517999446344008,0.116
1679517999454042208,0.177
1679517999461740408,0.154
1679517999469438608,0.154
1679517999477136808,0.177
1679517999484835032,0.158,69,983
1679517999492530724,0.108
1679517999500226416,0.066
1679517999507922108,0.05
1679517999515617800,0.054
1679517999523313492,0.068
1679517999531009184,0.06
1679517999538704876,0.029
1679517999546400568,0.022
1679517999554096260,0.041
1679517999561791952,0.037
1679517999569487644,0.022
1679517999577183336,0.018000000000000002
1679517999584879028,0.02
1679517999592574720,0.025
1679517999600270412,0.022
1679517999607966104,0.033
1679517999615661796,0.056
1679517999623357488,0.064
1679517999631053180,0.062
1679517999638748872,0.068
1679517999646444564,0.062
1679517999654140256,0.045
1679517999661835948,0.041
1679517999669531640,0.054
1679517999677227332,0.068
1679517999684923024,0.068
1679517999692618716,0.066
1679517999700314408,0.08700000000000001
1679517999708010100,0.112
1679517999715705792,0.108
1679517999723401484,0.079
1679517999731097176,0.056
1679517999738792868,0.041
1679517999746488560,0.027
1679517999754184252,0.018000000000000002
1679517999761879944,0.016
1679517999769575636,0.006
1679517999777271328,-0.022
1679517999784967020,-0.056
1679517999792662712,-0.056
1679517999800358404,-0.045
1679517999808054096,-0.052000000000000005
1679517999815749788,-0.066
1679517999823445480,-0.093
1679517999831141172,-0.131
1679517999838836864,-0.14100000000000001
1679517999846532556,-0.12
1679517999854228248,-0.108
1679517999861923940,-0.108
1679517999869619632,-0.114
1679517999877315324,-0.112
1679517999885011016,-0.1
1679517999892706708,-0.095
1679517999900402400,-0.093
1679517999908098092,-0.077
1679517999915793784,-0.064
1679517999923489476,-0.075
1679517999931185168,-0.081
1679517999938880860,-0.058
1679517999946576552,-0.037
1679517999954272244,-0.037
1679517999961967936,-0.041
1679517999969663628,-0.033
1679517999977359320,-0.016
1679517999985055012,-0.01
1679517999992750704,-0.045
1679518000000446396,-0.08700000000000001
1679518000008142088,-0.085
1679518000015837780,-0.083
1679518000023533472,-0.08700000000000001
1679518000031229164,-0.064
1679518000038924856,-0.041
1679518000046620552,-0.039,68,1006
1679518000054317498,-0.033
1679518000062014444,-0.035
1679518000069711390,-0.07
1679518000077408336,-0.093
1679518000085105282,-0.068
1679518000092802228,-0.043000000000000003
1679518000100499174,-0.041
1679518000108196120,-0.05
1679518000115893066,-0.043000000000000003
1679518000123590012,-0.022
1679518000131286958,-0.031
1679518000138983904,-0.07
1679518000146680850,-0.081
1679518000154377796,-0.064
1679518000162074742,-0.066
1679518000169771688,-0.066
