ts,red,ir,green
1679517990236018,122015.0,158140.0,8716.0
1679517990246018,122004.0,158143.0,8728.0
1679517990256019,122004.0,158100.0,8716.0
1679517990265019,122009.0,158096.0,8726.0
1679517990276018,122015.0,158130.0,8692.0
1679517990286018,122022.0,158124.0,8697.0
1679517990295019,122009.0,158129.0,8710.0
1679517990306018,122011.0,158153.0,8714.0
1679517990316018,122020.0,158159.0,8724.0
1679517990326018,122008.0,158135.0,8717.0
1679517990335018,122014.0,158129.0,8721.0
1679517990346018,122028.0,158147.0,8730.0
1679517990356018,122013.0,158163.0,8724.0
1679517990366018,122010.0,158160.0,8722.0
1679517990375018,122005.0,158153.0,8729.0
1679517990386018,121983.0,158159.0,8722.0
1679517990396018,121977.0,158166.0,8729.0
1679517990406018,121987.0,158159.0,8730.0
1679517990415018,122005.0,158148.0,8723.0
1679517990426018,122002.0,158173.0,8734.0
1679517990435019,122045.0,158161.0,8717.0
1679517990446019,122034.0,158164.0,8703.0
1679517990455019,122010.0,158160.0,8712.0
1679517990466019,122031.0,158198.0,8694.0
1679517990475019,122052.0,158172.0,8713.0
1679517990486019,122050.0,158191.0,8702.0
1679517990496019,122040.0,158150.0,8713.0
1679517990506019,122030.0,158142.0,8688.0
1679517990515019,122015.0,158117.0,8719.0
1679517990526018,121974.0,158115.0,8724.0
1679517990536018,121994.0,158091.0,8687.0
1679517990545019,121993.0,158073.0,8686.0
1679517990555019,121982.0,158048.0,8722.0
1679517990566018,121980.0,158045.0,8695.0
1679517990577018,121986.0,158065.0,8713.0
1679517990585018,122002.0,158082.0,8710.0
1679517990596018,121989.0,158093.0,8718.0
1679517990606018,122039.0,158123.0,8703.0
1679517990616019,122039.0,158151.0,8720.0
1679517990625019,122044.0,158167.0,8704.0
1679517990636019,122069.0,158192.0,8718.0
1679517990646019,122087.0,158207.0,8723.0
1679517990656019,122079.0,158210.0,8722.0
1679517990665019,122099.0,158233.0,8723.0
1679517990675019,122087.0,158235.0,8720.0
1679517990686019,122097.0,158230.0,8690.0
1679517990696019,122103.0,158257.0,8728.0
1679517990705019,122113.0,158272.0,8720.0
1679517990715019,122082.0,158272.0,8719.0
1679517990726019,122099.0,158268.0,8713.0
1679517990736019,122087.0,158265.0,8703.0
1679517990746019,122114.0,158269.0,8697.0
1679517990755019,122094.0,158266.0,8697.0
1679517990766018,122104.0,158252.0,8700.0
1679517990775019,122100.0,158245.0,8704.0
1679517990786018,122098.0,158256.0,8708.0
1679517990795019,122101.0,158247.0,8722.0
1679517990806018,122090.0,158230.0,8700.0
1679517990815019,122064.0,158238.0,8726.0
1679517990826018,122076.0,158227.0,8701.0
1679517990835018,122091.0,158234.0,8728.0
1679517990846018,122042.0,158230.0,8717.0
1679517990856018,122069.0,158224.0,8690.0
1679517990866018,122082.0,158230.0,8688.0
1679517990875018,122087.0,158226.0,8719.0
1679517990886018,122085.0,158253.0,8726.0
1679517990896018,122102.0,158253.0,8716.0
1679517990906018,122107.0,158244.0,8726.0
1679517990915018,122107.0,158280.0,8718.0
1679517990926018,122102.0,158294.0,8723.0
1679517990935018,122150.0,158274.0,8725.0
1679517990946018,122078.0,158277.0,8728.0
1679517990955018,122097.0,158264.0,8725.0
1679517990965018,122101.0,158272.0,8695.0
1679517990975019,122121.0,158269.0,8712.0
1679517990986019,122114.0,158255.0,8678.0
1679517990996019,122067.0,158283.0,8723.0
1679517991005019,122073.0,158272.0,8738.0
1679517991015019,122080.0,158252.0,8715.0
1679517991026018,122074.0,158273.0,8735.0
1679517991036018,122097.0,158272.0,8727.0
1679517991046018,122108.0,158247.0,8704.0
1679517991055019,122077.0,158210.0,8724.0
1679517991066018,122078.0,158253.0,8721.0
1679517991076018,122081.0,158254.0,8727.0
1679517991086018,122073.0,158226.0,8726.0
1679517991095018,122071.0,158238.0,8732.0
1679517991106018,122066.0,158254.0,8725.0
1679517991116018,122077.0,158235.0,8720.0
1679517991126018,122069.0,158248.0,8734.0
1679517991135018,122074.0,158244.0,8726.0
1679517991146018,122046.0,158248.0,8732.0
1679517991156019,122074.0,158237.0,8721.0
1679517991165019,122062.0,158241.0,8698.0
1679517991175019,122064.0,158249.0,8733.0
1679517991186019,122058.0,158263.0,8729.0
1679517991196019,122014.0,158251.0,8724.0
1679517991205019,122014.0,158232.0,8735.0
1679517991215019,122038.0,158236.0,8725.0
1679517991227019,122062.0,158238.0,8734.0
1679517991236019,122069.0,158189.0,8720.0
1679517991246019,122060.0,158278.0,8731.0
1679517991255019,122036.0,158249.0,8715.0
1679517991266019,122027.0,158242.0,8734.0
1679517991275019,122020.0,158251.0,8736.0
1679517991286019,122056.0,158237.0,8729.0
1679517991295019,122052.0,158247.0,8731.0
1679517991306019,122069.0,158256.0,8698.0
1679517991315019,122074.0,158247.0,8703.0
1679517991327019,122036.0,158259.0,8737.0
1679517991335018,122031.0,158247.0,8728.0
1679517991346018,122069.0,158239.0,8722.0
1679517991355018,122050.0,158243.0,8722.0
1679517991366018,122055.0,158253.0,8706.0
1679517991375018,122061.0,158233.0,8717.0
1679517991386018,122048.0,158248.0,8729.0
1679517991396018,122005.0,158200.0,8733.0
1679517991406018,121984.0,158186.0,8753.0
1679517991415018,121997.0,158148.0,8722.0
1679517991427019,121996.0,158093.0,8733.0
1679517991435018,121990.0,158098.0,8728.0
1679517991446018,121955.0,158094.0,8736.0
1679517991455018,121969.0,158109.0,8720.0
1679517991465018,121963.0,158121.0,8713.0
1679517991475018,121965.0,158124.0,8706.0
1679517991486018,121954.0,158156.0,8732.0
1679517991496018,121922.0,158106.0,8742.0
1679517991505018,121955.0,158166.0,8718.0
1679517991515019,121934.0,158148.0,8729.0
1679517991528019,121957.0,158155.0,8736.0
1679517991536018,121980.0,158140.0,8723.0
1679517991545019,121939.0,158189.0,8725.0
1679517991555019,121951.0,158146.0,8725.0
1679517991566018,121971.0,158158.0,8729.0
1679517991576018,121978.0,158159.0,8721.0
1679517991586018,121962.0,158176.0,8754.0
1679517991595018,121975.0,158160.0,8730.0
1679517991606018,121955.0,158181.0,8730.0
1679517991616018,121963.0,158139.0,8733.0
1679517991625018,121968.0,158192.0,8729.0
1679517991635018,121957.0,158168.0,8730.0
1679517991646018,121955.0,158173.0,8734.0
1679517991655018,121961.0,158183.0,8722.0
1679517991665018,121943.0,158176.0,8734.0
1679517991675018,121908.0,158174.0,8735.0
1679517991686018,121950.0,158180.0,8718.0
1679517991696019,121913.0,158147.0,8725.0
1679517991705019,121911.0,158168.0,8733.0
1679517991715019,121942.0,158101.0,8724.0
1679517991726019,121922.0,158097.0,8722.0
1679517991735019,121926.0,158119.0,8716.0
1679517991746019,121918.0,158168.0,8711.0
1679517991755019,121898.0,158122.0,8728.0
1679517991766018,121918.0,158145.0,8725.0
1679517991775019,121931.0,158156.0,8710.0
1679517991786018,121944.0,158141.0,8712.0
1679517991795019,121906.0,158144.0,8727.0
1679517991805019,121942.0,158174.0,8712.0
1679517991815019,121928.0,158153.0,8721.0
1679517991826018,121908.0,158175.0,8733.0
1679517991835018,121935.0,158158.0,8727.0
1679517991846018,121938.0,158160.0,8723.0
1679517991855018,121914.0,158153.0,8722.0
1679517991866018,121936.0,158126.0,8720.0
1679517991875019,121935.0,158142.0,8726.0
1679517991885019,121931.0,158169.0,8752.0
1679517991896019,121892.0,158161.0,8729.0
1679517991905019,121896.0,158168.0,8730.0
1679517991915019,121923.0,158176.0,8701.0
1679517991925019,121941.0,158164.0,8695.0
1679517991935019,121940.0,158154.0,8702.0
1679517991945019,121940.0,158134.0,8747.0
1679517991955019,121947.0,158178.0,8696.0
1679517991965019,121938.0,158173.0,8706.0
1679517991975019,121951.0,158176.0,8703.0
1679517991985019,121944.0,158161.0,8715.0
1679517991996019,121937.0,158168.0,8716.0
1679517992005019,121944.0,158173.0,8701.0
1679517992015019,121953.0,158184.0,8704.0
1679517992025019,121949.0,158178.0,8703.0
1679517992036018,121938.0,158176.0,8701.0
1679517992045019,121918.0,158172.0,8732.0
1679517992055019,121929.0,158156.0,8722.0
1679517992066018,121939.0,158139.0,8729.0
1679517992076018,121941.0,158176.0,8721.0
1679517992085018,121914.0,158211.0,8727.0
1679517992095018,121928.0,158170.0,8723.0
1679517992106018,121924.0,158186.0,8729.0
1679517992116018,121948.0,158157.0,8727.0
1679517992124018,121921.0,158158.0,8751.0
1679517992135018,121907.0,158216.0,8697.0
1679517992146018,121933.0,158208.0,8729.0
1679517992155018,121929.0,158189.0,8726.0
1679517992165018,121938.0,158177.0,8727.0
1679517992175018,121934.0,158147.0,8719.0
1679517992186018,121924.0,158208.0,8723.0
1679517992195018,121938.0,158171.0,8715.0
1679517992205018,121924.0,158182.0,8723.0
1679517992215018,121945.0,158215.0,8733.0
1679517992226018,121935.0,158183.0,8727.0
1679517992235019,121932.0,158189.0,8715.0
1679517992246019,121935.0,158241.0,8736.0
1679517992255019,121918.0,158214.0,8725.0
1679517992265019,121931.0,158242.0,8727.0
1679517992275019,121902.0,158206.0,8713.0
1679517992286018,121889.0,158205.0,8715.0
1679517992295019,121845.0,158155.0,8718.0
1679517992305019,121842.0,158102.0,8701.0
1679517992315019,121864.0,158144.0,8713.0
1679517992326018,121844.0,158115.0,8718.0
1679517992334018,121810.0,158122.0,8682.0
1679517992345018,121859.0,158080.0,8685.0
1679517992355018,121875.0,158142.0,8670.0
1679517992366018,121901.0,158166.0,8683.0
1679517992374018,121862.0,158157.0,8722.0
1679517992385018,121889.0,158177.0,8688.0
1679517992395018,121920.0,158217.0,8699.0
1679517992406018,121894.0,158223.0,8724.0
1679517992415019,121912.0,158238.0,8718.0
1679517992425019,121931.0,158258.0,8699.0
1679517992435019,121939.0,158299.0,8711.0
1679517992446019,121957.0,158269.0,8725.0
1679517992454018,121918.0,158280.0,8727.0
1679517992465018,121955.0,158321.0,8722.0
1679517992475018,121945.0,158329.0,8721.0
1679517992486018,121932.0,158331.0,8722.0
1679517992496018,121963.0,158308.0,8720.0
1679517992505018,121972.0,158297.0,8712.0
1679517992515018,121954.0,158314.0,8728.0
1679517992526018,121961.0,158330.0,8721.0
1679517992535018,121953.0,158321.0,8724.0
1679517992545018,121966.0,158353.0,8684.0
1679517992555018,121960.0,158376.0,8712.0
1679517992566018,121936.0,158355.0,8729.0
1679517992575018,121891.0,158348.0,8726.0
1679517992585018,121938.0,158355.0,8707.0
1679517992595018,121880.0,158338.0,8714.0
1679517992606018,121900.0,158340.0,8733.0
1679517992615018,121931.0,158295.0,8713.0
1679517992625018,121927.0,158340.0,8725.0
1679517992636018,121922.0,158356.0,8716.0
1679517992645018,121940.0,158383.0,8703.0
1679517992655018,121906.0,158353.0,8721.0
1679517992665018,121909.0,158374.0,8714.0
1679517992675018,121950.0,158314.0,8701.0
1679517992686018,121930.0,158344.0,8706.0
1679517992695018,121933.0,158361.0,8710.0
1679517992705018,121946.0,158344.0,8706.0
1679517992715018,121939.0,158377.0,8707.0
1679517992725018,121933.0,158382.0,8712.0
1679517992736018,121950.0,158413.0,8716.0
1679517992746018,121951.0,158441.0,8708.0
1679517992754018,121952.0,158420.0,8704.0
1679517992765018,121952.0,158438.0,8672.0
1679517992775019,121962.0,158416.0,8681.0
1679517992786018,121962.0,158419.0,8695.0
1679517992794018,121915.0,158436.0,8718.0
1679517992805018,121942.0,158437.0,8694.0
1679517992815018,121963.0,158451.0,8681.0
1679517992825018,121973.0,158456.0,8674.0
1679517992835018,121979.0,158440.0,8711.0
1679517992845018,121973.0,158440.0,8708.0
1679517992855018,121920.0,158466.0,8721.0
1679517992866018,121927.0,158473.0,8723.0
1679517992874018,121945.0,158474.0,8695.0
1679517992885018,121954.0,158482.0,8680.0
1679517992895018,121967.0,158478.0,8693.0
1679517992905018,121976.0,158470.0,8703.0
1679517992914018,121971.0,158484.0,8704.0
1679517992925018,121981.0,158487.0,8682.0
1679517992935018,121971.0,158497.0,8720.0
1679517992945018,121978.0,158502.0,8683.0
1679517992955019,121984.0,158494.0,8722.0
1679517992965019,121966.0,158449.0,8710.0
1679517992975019,121978.0,158534.0,8695.0
1679517992985019,121992.0,158512.0,8694.0
1679517992995019,121986.0,158517.0,8710.0
1679517993005019,121940.0,158555.0,8717.0
1679517993015019,121960.0,158557.0,8699.0
1679517993025019,121981.0,158537.0,8681.0
1679517993035019,121966.0,158524.0,8706.0
1679517993045019,121958.0,158545.0,8679.0
1679517993055019,121952.0,158534.0,8712.0
1679517993065019,121958.0,158503.0,8707.0
1679517993076018,121961.0,158489.0,8709.0
1679517993085018,121955.0,158421.0,8712.0
1679517993095018,121926.0,158451.0,8712.0
1679517993105018,121917.0,158439.0,8712.0
1679517993116018,121914.0,158412.0,8714.0
1679517993125018,121917.0,158430.0,8701.0
1679517993135019,121915.0,158441.0,8710.0
1679517993145019,121913.0,158450.0,8708.0
1679517993156019,121929.0,158446.0,8707.0
1679517993164018,121943.0,158470.0,8700.0
1679517993175018,121954.0,158512.0,8699.0
1679517993185018,121963.0,158526.0,8704.0
1679517993196018,121958.0,158535.0,8706.0
1679517993205018,121989.0,158522.0,8711.0
1679517993214018,121985.0,158581.0,8683.0
1679517993225018,122002.0,158599.0,8656.0
1679517993235018,122015.0,158595.0,8666.0
1679517993245018,121977.0,158618.0,8714.0
1679517993255018,122025.0,158632.0,8705.0
1679517993265018,122030.0,158643.0,8702.0
1679517993275018,122021.0,158672.0,8712.0
1679517993285018,122038.0,158661.0,8714.0
1679517993295018,122048.0,158656.0,8717.0
1679517993305018,122063.0,158660.0,8706.0
1679517993316019,122057.0,158687.0,8702.0
1679517993325019,122047.0,158674.0,8703.0
1679517993334019,122068.0,158719.0,8696.0
1679517993345019,122078.0,158718.0,8695.0
1679517993355019,122062.0,158686.0,8715.0
1679517993365019,122082.0,158721.0,8705.0
1679517993375019,122078.0,158704.0,8709.0
1679517993385019,122080.0,158702.0,8719.0
1679517993395019,122096.0,158770.0,8705.0
1679517993405019,122112.0,158763.0,8678.0
1679517993415019,122113.0,158781.0,8711.0
1679517993425019,122109.0,158778.0,8711.0
1679517993435019,122118.0,158809.0,8712.0
1679517993445019,122134.0,158813.0,8710.0
1679517993455019,122142.0,158825.0,8699.0
1679517993464019,122162.0,158847.0,8714.0
1679517993475019,122167.0,158892.0,8717.0
1679517993485019,122191.0,158902.0,8700.0
1679517993496019,122182.0,158920.0,8709.0
1679517993504018,122165.0,158941.0,8721.0
1679517993515018,122204.0,158922.0,8714.0
1679517993525018,122217.0,158939.0,8712.0
1679517993536018,122225.0,159000.0,8713.0
1679517993544018,122241.0,159008.0,8702.0
1679517993555018,122243.0,158958.0,8691.0
1679517993565018,122231.0,159006.0,8683.0
1679517993575018,122249.0,159022.0,8686.0
1679517993584018,122256.0,159018.0,8690.0
1679517993595018,122278.0,159025.0,8705.0
1679517993605018,122242.0,159052.0,8697.0
1679517993615018,122280.0,159054.0,8678.0
1679517993624018,122273.0,159055.0,8692.0
1679517993635018,122279.0,159054.0,8707.0
1679517993645018,122297.0,159071.0,8713.0
1679517993655018,122329.0,159088.0,8708.0
1679517993665018,122273.0,159052.0,8712.0
1679517993674018,122285.0,159100.0,8715.0
1679517993684018,122295.0,159122.0,8709.0
1679517993694018,122313.0,159090.0,8719.0
1679517993704018,122304.0,159101.0,8716.0
1679517993713019,122292.0,159141.0,8716.0
1679517993724018,122306.0,159110.0,8734.0
1679517993734018,122321.0,159142.0,8715.0
1679517993744018,122326.0,159167.0,8708.0
1679517993753018,122363.0,159150.0,8725.0
1679517993764018,122276.0,159153.0,8728.0
1679517993774018,122293.0,159177.0,8727.0
1679517993784018,122340.0,159196.0,8709.0
1679517993793018,122341.0,159204.0,8708.0
1679517993804018,122317.0,159227.0,8725.0
1679517993814018,122347.0,159217.0,8719.0
1679517993824018,122355.0,159227.0,8721.0
1679517993833018,122355.0,159231.0,8709.0
1679517993844018,122378.0,159238.0,8720.0
1679517993855019,122372.0,159248.0,8715.0
1679517993865019,122368.0,159245.0,8686.0
1679517993874019,122354.0,159237.0,8714.0
1679517993885019,122349.0,159242.0,8721.0
1679517993895019,122308.0,159212.0,8720.0
1679517993905019,122346.0,159186.0,8707.0
1679517993914019,122301.0,159162.0,8701.0
1679517993925019,122284.0,159149.0,8709.0
1679517993935019,122305.0,159105.0,8708.0
1679517993946019,122296.0,159064.0,8714.0
1679517993954018,122301.0,159074.0,8700.0
1679517993965018,122296.0,159149.0,8695.0
1679517993974018,122265.0,159145.0,8708.0
1679517993985018,122299.0,159163.0,8710.0
1679517993995018,122306.0,159166.0,8703.0
1679517994005018,122327.0,159212.0,8686.0
1679517994014018,122338.0,159215.0,8668.0
1679517994025018,122326.0,159232.0,8711.0
1679517994035019,122330.0,159240.0,8703.0
1679517994045019,122328.0,159252.0,8697.0
1679517994054019,122359.0,159240.0,8714.0
1679517994065019,122319.0,159265.0,8716.0
1679517994075019,122348.0,159289.0,8718.0
1679517994084019,122350.0,159289.0,8696.0
1679517994094019,122377.0,159303.0,8668.0
1679517994105018,122376.0,159297.0,8691.0
1679517994115018,122357.0,159319.0,8719.0
1679517994124019,122325.0,159329.0,8713.0
1679517994134019,122333.0,159310.0,8720.0
1679517994145018,122378.0,159332.0,8712.0
1679517994155018,122342.0,159327.0,8706.0
1679517994164018,122375.0,159318.0,8683.0
1679517994174018,122346.0,159307.0,8687.0
1679517994185018,122367.0,159319.0,8681.0
1679517994195018,122361.0,159318.0,8702.0
1679517994204018,122339.0,159310.0,8683.0
1679517994214019,122357.0,159322.0,8678.0
1679517994225019,122371.0,159301.0,8676.0
1679517994235019,122357.0,159321.0,8702.0
1679517994245019,122364.0,159328.0,8708.0
1679517994254019,122328.0,159330.0,8713.0
1679517994265019,122374.0,159306.0,8698.0
1679517994275019,122385.0,159329.0,8712.0
1679517994285019,122384.0,159353.0,8685.0
1679517994294019,122385.0,159370.0,8711.0
1679517994305019,122395.0,159380.0,8712.0
1679517994314019,122407.0,159407.0,8698.0
1679517994325019,122383.0,159408.0,8717.0
1679517994334019,122374.0,159411.0,8712.0
1679517994345018,122426.0,159417.0,8704.0
1679517994354019,122396.0,159405.0,8709.0
1679517994365018,122432.0,159406.0,8695.0
1679517994375018,122429.0,159435.0,8716.0
1679517994384019,122421.0,159429.0,8710.0
1679517994395019,122410.0,159415.0,8710.0
1679517994405019,122422.0,159371.0,8723.0
1679517994414019,122423.0,159424.0,8691.0
1679517994424019,122431.0,159424.0,8705.0
1679517994435019,122411.0,159432.0,8716.0
1679517994445019,122424.0,159429.0,8706.0
1679517994454019,122410.0,159451.0,8718.0
1679517994464019,122434.0,159461.0,8712.0
1679517994475019,122419.0,159422.0,8712.0
1679517994485019,122421.0,159424.0,8703.0
1679517994495019,122435.0,159459.0,8716.0
1679517994504019,122427.0,159451.0,8712.0
1679517994515019,122432.0,159501.0,8703.0
1679517994525019,122425.0,159486.0,8711.0
1679517994535019,122426.0,159484.0,8719.0
1679517994544019,122422.0,159465.0,8712.0
1679517994555019,122429.0,159491.0,8699.0
1679517994564019,122423.0,159496.0,8713.0
1679517994575019,122393.0,159495.0,8710.0
1679517994584019,122396.0,159488.0,8717.0
1679517994595018,122425.0,159465.0,8706.0
1679517994604019,122424.0,159461.0,8723.0
1679517994615018,122423.0,159493.0,8715.0
1679517994624019,122424.0,159495.0,8713.0
1679517994635018,122426.0,159498.0,8699.0
1679517994644019,122401.0,159511.0,8707.0
1679517994655018,122423.0,159476.0,8710.0
1679517994664018,122396.0,159490.0,8714.0
1679517994675018,122385.0,159508.0,8714.0
1679517994684018,122425.0,159526.0,8714.0
1679517994695018,122418.0,159516.0,8707.0
1679517994704018,122398.0,159516.0,8726.0
1679517994714018,122432.0,159526.0,8712.0
1679517994724018,122408.0,159521.0,8705.0
1679517994735018,122397.0,159529.0,8713.0
1679517994745018,122425.0,159519.0,8711.0
1679517994754019,122440.0,159525.0,8705.0
1679517994764019,122438.0,159522.0,8680.0
1679517994775019,122401.0,159543.0,8711.0
1679517994785019,122384.0,159520.0,8709.0
1679517994794019,122424.0,159536.0,8699.0
1679517994804019,122404.0,159531.0,8717.0
1679517994815019,122384.0,159539.0,8714.0
1679517994824019,122399.0,159518.0,8715.0
1679517994834019,122422.0,159514.0,8687.0
1679517994844019,122384.0,159492.0,8673.0
1679517994854019,122390.0,159444.0,8672.0
1679517994865018,122364.0,159420.0,8704.0
1679517994874019,122350.0,159356.0,8704.0
1679517994885018,122334.0,159339.0,8690.0
1679517994894019,122323.0,159360.0,8699.0
1679517994905018,122331.0,159329.0,8699.0
1679517994914018,122331.0,159327.0,8697.0
1679517994925018,122322.0,159374.0,8698.0
1679517994934019,122344.0,159360.0,8699.0
1679517994943019,122355.0,159355.0,8695.0
1679517994953019,122359.0,159421.0,8665.0
1679517994964019,122360.0,159454.0,8698.0
1679517994973019,122366.0,159420.0,8696.0
1679517994984019,122375.0,159437.0,8701.0
1679517994994019,122396.0,159440.0,8685.0
1679517995003019,122376.0,159432.0,8696.0
1679517995013019,122395.0,159474.0,8677.0
1679517995024019,122394.0,159482.0,8704.0
1679517995034019,122383.0,159477.0,8704.0
1679517995043019,122379.0,159495.0,8709.0
1679517995053019,122381.0,159460.0,8704.0
1679517995064019,122375.0,159496.0,8660.0
1679517995073019,122370.0,159513.0,8699.0
1679517995083019,122340.0,159519.0,8701.0
1679517995093019,122329.0,159478.0,8706.0
1679517995104019,122336.0,159499.0,8704.0
1679517995114019,122362.0,159494.0,8672.0
1679517995124019,122329.0,159506.0,8668.0
1679517995134019,122355.0,159489.0,8684.0
1679517995145018,122339.0,159483.0,8687.0
1679517995155018,122297.0,159478.0,8695.0
1679517995164018,122321.0,159505.0,8692.0
1679517995174018,122295.0,159464.0,8700.0
1679517995185018,122318.0,159480.0,8684.0
1679517995194018,122344.0,159472.0,8695.0
1679517995204018,122354.0,159505.0,8704.0
1679517995214018,122356.0,159516.0,8690.0
1679517995225018,122362.0,159490.0,8707.0
1679517995234018,122372.0,159515.0,8697.0
1679517995245018,122373.0,159510.0,8686.0
1679517995255018,122382.0,159524.0,8693.0
1679517995264018,122364.0,159533.0,8721.0
1679517995274018,122398.0,159541.0,8676.0
1679517995285018,122363.0,159576.0,8704.0
1679517995294019,122362.0,159563.0,8701.0
1679517995304019,122403.0,159556.0,8697.0
1679517995314019,122396.0,159565.0,8703.0
1679517995325019,122419.0,159584.0,8706.0
1679517995334019,122422.0,159587.0,8691.0
1679517995344019,122411.0,159595.0,8698.0
1679517995356019,122393.0,159582.0,8701.0
1679517995365019,122385.0,159593.0,8756.0
1679517995373019,122393.0,159574.0,8706.0
1679517995384019,122420.0,159607.0,8671.0
1679517995394019,122435.0,159586.0,8665.0
1679517995405018,122431.0,159582.0,8657.0
1679517995413018,122426.0,159578.0,8689.0
1679517995424018,122438.0,159586.0,8680.0
1679517995435018,122425.0,159585.0,8708.0
1679517995444018,122426.0,159588.0,8702.0
1679517995454018,122429.0,159587.0,8704.0
1679517995464018,122441.0,159589.0,8685.0
1679517995475019,122424.0,159553.0,8694.0
1679517995484019,122413.0,159540.0,8689.0
1679517995495019,122396.0,159582.0,8707.0
1679517995504019,122415.0,159569.0,8704.0
1679517995515019,122406.0,159541.0,8707.0
1679517995524019,122411.0,159576.0,8709.0
1679517995535019,122390.0,159563.0,8711.0
1679517995544019,122395.0,159539.0,8697.0
1679517995554019,122380.0,159566.0,8689.0
1679517995564019,122376.0,159562.0,8664.0
1679517995574019,122376.0,159541.0,8704.0
1679517995584019,122384.0,159515.0,8680.0
1679517995595018,122370.0,159540.0,8698.0
1679517995604019,122371.0,159538.0,8696.0
1679517995615018,122369.0,159522.0,8689.0
1679517995624019,122359.0,159547.0,8684.0
1679517995634019,122356.0,159537.0,8697.0
1679517995644019,122370.0,159531.0,8652.0
1679517995654019,122357.0,159497.0,8682.0
1679517995664018,122361.0,159513.0,8692.0
1679517995674018,122351.0,159519.0,8705.0
1679517995684018,122347.0,159522.0,8696.0
1679517995694018,122327.0,159512.0,8695.0
1679517995704018,122345.0,159501.0,8686.0
1679517995714018,122342.0,159524.0,8693.0
1679517995724018,122335.0,159503.0,8698.0
1679517995734018,122305.0,159506.0,8705.0
1679517995745018,122319.0,159523.0,8691.0
1679517995753018,122336.0,159518.0,8676.0
1679517995764018,122298.0,159537.0,8695.0
1679517995774018,122351.0,159507.0,8696.0
1679517995785018,122350.0,159520.0,8693.0
1679517995794018,122334.0,159502.0,8699.0
1679517995804018,122342.0,159498.0,8695.0
1679517995814018,122323.0,159504.0,8693.0
1679517995824018,122337.0,159514.0,8667.0
1679517995833019,122334.0,159489.0,8677.0
1679517995844019,122322.0,159480.0,8674.0
1679517995854019,122289.0,159501.0,8687.0
1679517995864019,122298.0,159488.0,8677.0
1679517995873019,122305.0,159480.0,8685.0
1679517995884019,122294.0,159451.0,8658.0
1679517995894019,122296.0,159410.0,8673.0
1679517995904019,122267.0,159400.0,8658.0
1679517995913019,122232.0,159369.0,8662.0
1679517995924018,122228.0,159350.0,8641.0
1679517995934018,122223.0,159312.0,8669.0
1679517995944018,122213.0,159316.0,8648.0
1679517995954018,122221.0,159318.0,8654.0
1679517995964018,122233.0,159312.0,8640.0
1679517995974018,122218.0,159357.0,8679.0
1679517995984018,122243.0,159341.0,8679.0
1679517995995018,122257.0,159325.0,8684.0
1679517996004018,122266.0,159347.0,8675.0
1679517996014019,122261.0,159378.0,8684.0
1679517996024019,122272.0,159411.0,8687.0
1679517996035019,122290.0,159451.0,8677.0
1679517996044019,122293.0,159452.0,8681.0
1679517996053019,122286.0,159461.0,8687.0
1679517996064019,122306.0,159454.0,8656.0
1679517996075019,122287.0,159437.0,8686.0
1679517996084019,122298.0,159406.0,8682.0
1679517996094019,122303.0,159461.0,8677.0
1679517996104019,122302.0,159488.0,8689.0
1679517996115018,122287.0,159482.0,8691.0
1679517996123018,122299.0,159484.0,8687.0
1679517996134018,122305.0,159457.0,8687.0
1679517996144018,122299.0,159434.0,8690.0
1679517996155018,122275.0,159456.0,8684.0
1679517996163018,122294.0,159419.0,8691.0
1679517996174018,122287.0,159483.0,8680.0
1679517996184018,122267.0,159465.0,8672.0
1679517996195019,122245.0,159464.0,8690.0
1679517996204019,122227.0,159444.0,8694.0
1679517996214019,122249.0,159427.0,8673.0
1679517996224019,122264.0,159439.0,8688.0
1679517996234019,122265.0,159439.0,8665.0
1679517996244019,122253.0,159464.0,8669.0
1679517996254019,122250.0,159458.0,8676.0
1679517996264019,122223.0,159434.0,8686.0
1679517996274019,122254.0,159433.0,8685.0
1679517996284019,122254.0,159454.0,8685.0
1679517996294019,122252.0,159465.0,8686.0
1679517996304019,122260.0,159444.0,8677.0
1679517996314019,122238.0,159471.0,8692.0
1679517996324019,122210.0,159445.0,8684.0
1679517996334019,122248.0,159461.0,8678.0
1679517996343019,122222.0,159466.0,8681.0
1679517996354019,122218.0,159442.0,8685.0
1679517996364019,122213.0,159479.0,8689.0
1679517996374019,122269.0,159408.0,8671.0
1679517996383019,122273.0,159452.0,8674.0
1679517996394019,122229.0,159459.0,8686.0
1679517996404019,122217.0,159460.0,8689.0
1679517996414018,122237.0,159451.0,8684.0
1679517996423019,122253.0,159467.0,8673.0
1679517996434018,122230.0,159467.0,8690.0
1679517996444018,122214.0,159460.0,8691.0
1679517996454018,122257.0,159430.0,8679.0
1679517996464018,122255.0,159412.0,8673.0
1679517996474018,122253.0,159475.0,8679.0
1679517996484018,122251.0,159455.0,8676.0
1679517996495018,122244.0,159467.0,8680.0
1679517996503018,122208.0,159441.0,8684.0
1679517996514018,122245.0,159459.0,8669.0
1679517996524018,122246.0,159451.0,8673.0
1679517996534018,122233.0,159452.0,8678.0
1679517996543018,122209.0,159445.0,8686.0
1679517996554019,122198.0,159441.0,8685.0
1679517996565019,122210.0,159445.0,8698.0
1679517996574019,122218.0,159395.0,8668.0
1679517996583019,122237.0,159434.0,8673.0
1679517996594019,122234.0,159446.0,8668.0
1679517996604019,122227.0,159435.0,8681.0
1679517996615018,122194.0,159442.0,8685.0
1679517996623018,122168.0,159414.0,8677.0
1679517996634018,122221.0,159431.0,8687.0
1679517996644018,122219.0,159393.0,8678.0
1679517996654018,122216.0,159382.0,8689.0
1679517996664018,122227.0,159369.0,8669.0
1679517996674018,122209.0,159421.0,8679.0
1679517996684018,122158.0,159424.0,8677.0
1679517996694018,122213.0,159433.0,8683.0
1679517996704018,122210.0,159422.0,8689.0
1679517996714018,122207.0,159440.0,8681.0
1679517996724018,122208.0,159444.0,8674.0
1679517996734019,122206.0,159429.0,8685.0
1679517996744019,122182.0,159420.0,8680.0
1679517996754019,122197.0,159415.0,8685.0
1679517996764019,122194.0,159373.0,8686.0
1679517996774019,122197.0,159362.0,8686.0
1679517996784019,122198.0,159415.0,8677.0
1679517996794019,122206.0,159413.0,8675.0
1679517996804019,122161.0,159422.0,8686.0
1679517996813019,122204.0,159401.0,8669.0
1679517996824019,122217.0,159392.0,8665.0
1679517996833019,122198.0,159396.0,8682.0
1679517996844019,122207.0,159399.0,8662.0
1679517996853019,122193.0,159373.0,8668.0
1679517996864019,122193.0,159361.0,8656.0
1679517996874019,122156.0,159342.0,8683.0
1679517996883019,122149.0,159286.0,8685.0
1679517996894019,122145.0,159295.0,8668.0
1679517996904019,122104.0,159246.0,8665.0
1679517996914018,122123.0,159251.0,8667.0
1679517996923019,122110.0,159248.0,8669.0
1679517996934018,122112.0,159248.0,8676.0
1679517996944018,122107.0,159262.0,8675.0
1679517996954018,122116.0,159251.0,8669.0
1679517996963019,122130.0,159254.0,8672.0
1679517996974018,122144.0,159260.0,8671.0
1679517996984018,122158.0,159331.0,8667.0
1679517996994018,122150.0,159334.0,8658.0
1679517997004018,122179.0,159367.0,8636.0
1679517997013018,122200.0,159385.0,8654.0
1679517997024018,122189.0,159368.0,8648.0
1679517997034018,122219.0,159383.0,8644.0
1679517997043018,122228.0,159383.0,8645.0
1679517997053018,122232.0,159399.0,8667.0
1679517997064018,122234.0,159401.0,8665.0
1679517997074018,122223.0,159416.0,8662.0
1679517997083018,122244.0,159431.0,8671.0
1679517997094019,122232.0,159463.0,8677.0
1679517997104019,122228.0,159431.0,8683.0
1679517997114019,122200.0,159439.0,8688.0
1679517997123019,122210.0,159441.0,8672.0
1679517997133019,122239.0,159470.0,8648.0
1679517997144019,122233.0,159473.0,8649.0
1679517997154019,122256.0,159448.0,8655.0
1679517997163019,122246.0,159432.0,8653.0
1679517997173019,122212.0,159444.0,8688.0
1679517997184018,122228.0,159469.0,8674.0
1679517997194018,122247.0,159459.0,8680.0
1679517997204018,122243.0,159442.0,8678.0
1679517997214018,122254.0,159446.0,8680.0
1679517997224018,122266.0,159433.0,8690.0
1679517997234018,122272.0,159485.0,8686.0
1679517997244018,122286.0,159438.0,8683.0
1679517997254018,122297.0,159451.0,8677.0
1679517997263018,122311.0,159469.0,8675.0
1679517997274019,122293.0,159481.0,8681.0
1679517997284019,122322.0,159554.0,8691.0
1679517997294019,122336.0,159553.0,8685.0
1679517997303019,122345.0,159556.0,8688.0
1679517997314019,122343.0,159587.0,8676.0
1679517997324019,122350.0,159591.0,8678.0
1679517997333019,122354.0,159602.0,8681.0
1679517997343019,122326.0,159614.0,8687.0
1679517997354019,122371.0,159614.0,8682.0
1679517997364019,122339.0,159619.0,8690.0
1679517997373019,122345.0,159629.0,8690.0
1679517997383019,122391.0,159630.0,8687.0
1679517997394019,122386.0,159612.0,8689.0
1679517997404019,122393.0,159609.0,8690.0
1679517997413019,122399.0,159623.0,8680.0
1679517997424018,122386.0,159624.0,8691.0
1679517997434018,122389.0,159602.0,8687.0
1679517997444018,122403.0,159631.0,8695.0
1679517997454019,122386.0,159633.0,8687.0
1679517997463019,122385.0,159628.0,8696.0
1679517997473019,122402.0,159655.0,8678.0
1679517997484019,122404.0,159653.0,8668.0
1679517997494019,122409.0,159595.0,8700.0
1679517997504019,122386.0,159631.0,8688.0
1679517997514019,122397.0,159613.0,8689.0
1679517997524019,122401.0,159597.0,8698.0
1679517997534019,122405.0,159654.0,8680.0
1679517997543019,122410.0,159643.0,8675.0
1679517997554019,122400.0,159656.0,8687.0
1679517997563019,122370.0,159661.0,8699.0
1679517997574019,122365.0,159646.0,8698.0
1679517997583019,122368.0,159662.0,8686.0
1679517997593019,122420.0,159646.0,8688.0
1679517997604019,122423.0,159655.0,8699.0
1679517997614019,122416.0,159674.0,8692.0
1679517997624019,122426.0,159664.0,8700.0
1679517997633019,122432.0,159677.0,8694.0
1679517997643019,122433.0,159653.0,8695.0
1679517997654019,122427.0,159662.0,8652.0
1679517997663019,122430.0,159687.0,8681.0
1679517997675019,122435.0,159661.0,8671.0
1679517997683019,122388.0,159663.0,8698.0
1679517997694018,122433.0,159653.0,8665.0
1679517997704018,122420.0,159654.0,8686.0
1679517997713019,122429.0,159645.0,8685.0
1679517997724018,122415.0,159653.0,8683.0
1679517997734018,122427.0,159650.0,8698.0
1679517997744018,122433.0,159677.0,8670.0
1679517997753018,122428.0,159644.0,8682.0
1679517997763018,122417.0,159652.0,8677.0
1679517997774018,122427.0,159643.0,8677.0
1679517997784018,122420.0,159642.0,8703.0
1679517997793018,122399.0,159626.0,8688.0
1679517997804018,122419.0,159613.0,8696.0
1679517997814019,122409.0,159657.0,8680.0
1679517997824019,122418.0,159656.0,8703.0
1679517997833019,122399.0,159631.0,8690.0
1679517997844019,122414.0,159612.0,8695.0
1679517997854019,122414.0,159602.0,8693.0
1679517997864019,122403.0,159619.0,8685.0
1679517997873019,122386.0,159619.0,8685.0
1679517997884019,122371.0,159559.0,8698.0
1679517997893019,122363.0,159534.0,8688.0
1679517997904019,122341.0,159527.0,8693.0
1679517997913019,122326.0,159495.0,8674.0
1679517997924018,122306.0,159425.0,8679.0
1679517997933019,122309.0,159434.0,8669.0
1679517997944018,122303.0,159457.0,8690.0
1679517997954018,122321.0,159499.0,8683.0
1679517997964018,122325.0,159496.0,8685.0
1679517997973019,122343.0,159529.0,8673.0
1679517997984018,122347.0,159489.0,8679.0
1679517997994019,122360.0,159582.0,8677.0
1679517998003019,122342.0,159597.0,8685.0
1679517998013019,122366.0,159567.0,8684.0
1679517998024019,122373.0,159591.0,8694.0
1679517998034019,122383.0,159602.0,8685.0
1679517998043019,122378.0,159561.0,8694.0
1679517998053019,122379.0,159545.0,8687.0
1679517998064019,122378.0,159546.0,8691.0
1679517998074019,122370.0,159544.0,8685.0
1679517998083019,122359.0,159575.0,8683.0
1679517998093019,122329.0,159582.0,8689.0
1679517998104019,122340.0,159567.0,8692.0
1679517998113019,122343.0,159583.0,8693.0
1679517998123019,122337.0,159595.0,8665.0
1679517998133019,122350.0,159575.0,8667.0
1679517998144019,122359.0,159581.0,8665.0
1679517998153019,122365.0,159544.0,8664.0
1679517998163019,122331.0,159546.0,8663.0
1679517998173019,122362.0,159546.0,8664.0
1679517998183019,122339.0,159518.0,8653.0
1679517998193019,122335.0,159530.0,8643.0
1679517998204018,122346.0,159522.0,8642.0
1679517998213019,122340.0,159524.0,8629.0
1679517998223019,122286.0,159527.0,8694.0
1679517998233019,122290.0,159518.0,8691.0
1679517998244018,122303.0,159528.0,8669.0
1679517998253018,122321.0,159558.0,8680.0
1679517998263018,122318.0,159561.0,8699.0
1679517998273018,122290.0,159552.0,8696.0
1679517998284018,122318.0,159540.0,8694.0
1679517998293018,122362.0,159557.0,8688.0
1679517998303018,122373.0,159560.0,8670.0
1679517998314018,122372.0,159573.0,8692.0
1679517998324018,122371.0,159573.0,8692.0
1679517998333018,122365.0,159577.0,8698.0
1679517998343018,122374.0,159553.0,8693.0
1679517998354019,122374.0,159554.0,8694.0
1679517998364019,122385.0,159523.0,8695.0
1679517998372018,122378.0,159592.0,8668.0
1679517998383018,122399.0,159591.0,8663.0
1679517998394018,122372.0,159615.0,8702.0
1679517998404018,122390.0,159595.0,8698.0
1679517998413018,122376.0,159586.0,8692.0
1679517998423018,122376.0,159568.0,8695.0
1679517998434018,122383.0,159581.0,8693.0
1679517998443018,122385.0,159581.0,8695.0
1679517998454018,122367.0,159584.0,8699.0
1679517998463018,122372.0,159585.0,8700.0
1679517998474018,122375.0,159563.0,8700.0
1679517998483018,122369.0,159554.0,8695.0
1679517998494018,122379.0,159597.0,8682.0
1679517998503018,122380.0,159591.0,8695.0
1679517998514018,122351.0,159573.0,8699.0
1679517998523018,122388.0,159575.0,8693.0
1679517998534019,122349.0,159566.0,8704.0
1679517998543019,122369.0,159551.0,8694.0
1679517998553019,122334.0,159582.0,8706.0
1679517998563019,122352.0,159595.0,8672.0
1679517998573019,122365.0,159595.0,8659.0
1679517998584019,122374.0,159592.0,8657.0
1679517998594019,122377.0,159569.0,8690.0
1679517998603019,122360.0,159566.0,8698.0
1679517998613019,122321.0,159590.0,8698.0
1679517998623019,122344.0,159583.0,8697.0
1679517998633019,122351.0,159579.0,8681.0
1679517998643019,122372.0,159594.0,8657.0
1679517998653019,122377.0,159611.0,8683.0
1679517998663019,122382.0,159572.0,8681.0
1679517998673019,122373.0,159588.0,8680.0
1679517998684018,122362.0,159583.0,8675.0
1679517998693019,122374.0,159597.0,8689.0
1679517998704018,122383.0,159586.0,8681.0
1679517998714019,122364.0,159585.0,8698.0
1679517998723019,122372.0,159576.0,8714.0
1679517998733019,122321.0,159588.0,8701.0
1679517998744019,122345.0,159577.0,8702.0
1679517998753019,122347.0,159573.0,8678.0
1679517998763019,122347.0,159590.0,8691.0
1679517998773019,122316.0,159573.0,8703.0
1679517998785019,122339.0,159576.0,8709.0
1679517998793019,122340.0,159563.0,8696.0
1679517998803019,122315.0,159572.0,8701.0
1679517998813019,122312.0,159548.0,8698.0
1679517998824019,122326.0,159560.0,8703.0
1679517998832018,122327.0,159569.0,8682.0
1679517998843018,122334.0,159525.0,8657.0
1679517998853018,122257.0,159499.0,8703.0
1679517998864018,122273.0,159479.0,8689.0
1679517998872018,122279.0,159446.0,8675.0
1679517998885018,122264.0,159433.0,8646.0
1679517998894019,122256.0,159380.0,8667.0
1679517998903019,122221.0,159320.0,8693.0
1679517998913019,122230.0,159333.0,8685.0
1679517998923019,122227.0,159326.0,8686.0
1679517998933019,122197.0,159311.0,8689.0
1679517998943019,122196.0,159335.0,8647.0
1679517998953019,122201.0,159324.0,8675.0
1679517998963019,122211.0,159322.0,8670.0
1679517998973019,122160.0,159354.0,8690.0
1679517998983019,122191.0,159360.0,8678.0
1679517998994018,122213.0,159371.0,8665.0
1679517999003018,122219.0,159382.0,8685.0
1679517999013018,122220.0,159381.0,8696.0
1679517999023018,122239.0,159383.0,8689.0
1679517999034018,122235.0,159395.0,8686.0
1679517999043018,122230.0,159364.0,8676.0
1679517999053018,122231.0,159433.0,8682.0
1679517999063018,122254.0,159417.0,8698.0
1679517999074019,122248.0,159440.0,8677.0
1679517999083019,122248.0,159453.0,8686.0
1679517999093019,122232.0,159420.0,8684.0
1679517999103019,122221.0,159441.0,8694.0
1679517999114019,122237.0,159445.0,8692.0
1679517999122018,122253.0,159465.0,8680.0
1679517999133018,122233.0,159439.0,8698.0
1679517999143018,122210.0,159451.0,8694.0
1679517999153018,122234.0,159423.0,8693.0
1679517999163018,122196.0,159416.0,8680.0
1679517999173018,122234.0,159404.0,8646.0
1679517999183018,122217.0,159402.0,8663.0
1679517999193018,122229.0,159393.0,8645.0
1679517999204018,122207.0,159361.0,8693.0
1679517999213018,122208.0,159340.0,8684.0
1679517999223018,122210.0,159316.0,8684.0
1679517999233018,122188.0,159324.0,8678.0
1679517999244018,122185.0,159330.0,8688.0
1679517999253018,122195.0,159334.0,8689.0
1679517999263018,122196.0,159381.0,8698.0
1679517999273018,122195.0,159359.0,8686.0
1679517999284018,122198.0,159339.0,8699.0
1679517999292018,122201.0,159308.0,8693.0
1679517999303018,122195.0,159385.0,8689.0
1679517999313018,122175.0,159375.0,8702.0
1679517999324018,122166.0,159384.0,8691.0
1679517999332018,122204.0,159407.0,8697.0
1679517999343018,122213.0,159386.0,8686.0
1679517999353018,122209.0,159384.0,8689.0
1679517999364018,122197.0,159383.0,8687.0
1679517999372018,122164.0,159387.0,8693.0
1679517999383018,122169.0,159365.0,8683.0
1679517999393018,122204.0,159389.0,8684.0
1679517999403018,122203.0,159382.0,8670.0
1679517999413018,122210.0,159372.0,8664.0
1679517999423018,122214.0,159381.0,8658.0
1679517999433019,122216.0,159398.0,8668.0
1679517999443019,122224.0,159373.0,8683.0
1679517999453019,122212.0,159401.0,8697.0
1679517999463019,122196.0,159391.0,8684.0
1679517999473019,122182.0,159369.0,8688.0
1679517999483019,122190.0,159349.0,8694.0
1679517999493018,122199.0,159377.0,8687.0
1679517999503018,122174.0,159360.0,8697.0
1679517999513018,122188.0,159360.0,8697.0
1679517999523018,122192.0,159353.0,8692.0
1679517999533018,122187.0,159372.0,8690.0
1679517999543018,122182.0,159354.0,8686.0
1679517999553018,122145.0,159347.0,8686.0
1679517999563018,122135.0,159329.0,8693.0
1679517999573018,122132.0,159350.0,8691.0
1679517999583018,122149.0,159325.0,8698.0
1679517999592018,122158.0,159328.0,8687.0
1679517999603018,122178.0,159277.0,8671.0
1679517999614019,122196.0,159342.0,8694.0
1679517999623019,122173.0,159342.0,8688.0
1679517999632019,122180.0,159337.0,8668.0
1679517999643019,122187.0,159308.0,8655.0
1679517999654019,122188.0,159336.0,8701.0
1679517999663019,122170.0,159320.0,8699.0
1679517999673019,122171.0,159329.0,8699.0
1679517999683019,122168.0,159323.0,8683.0
1679517999694018,122169.0,159320.0,8698.0
1679517999703019,122172.0,159271.0,8682.0
1679517999713019,122153.0,159320.0,8685.0
1679517999723019,122148.0,159296.0,8699.0
1679517999733019,122154.0,159344.0,8696.0
1679517999743018,122159.0,159319.0,8695.0
1679517999753018,122166.0,159319.0,8688.0
1679517999763018,122125.0,159318.0,8700.0
1679517999773018,122118.0,159322.0,8701.0
1679517999783018,122168.0,159324.0,8683.0
1679517999793019,122152.0,159332.0,8687.0
1679517999802019,122166.0,159312.0,8663.0
1679517999813019,122123.0,159329.0,8698.0
1679517999823019,122094.0,159311.0,8694.0
1679517999833019,122135.0,159320.0,8674.0
1679517999842019,122113.0,159329.0,8690.0
1679517999853019,122100.0,159311.0,8691.0
1679517999863019,122102.0,159304.0,8691.0
1679517999873019,122124.0,159315.0,8654.0
1679517999882019,122110.0,159269.0,8658.0
1679517999893019,122107.0,159230.0,8645.0
1679517999904019,122081.0,159183.0,8686.0
1679517999913019,122066.0,159135.0,8677.0
1679517999923019,122069.0,159129.0,8673.0
1679517999933019,122052.0,159144.0,8664.0
1679517999943019,122046.0,159166.0,8684.0
1679517999953019,122052.0,159190.0,8681.0
1679517999963019,122063.0,159220.0,8677.0
1679517999973019,122054.0,159227.0,8674.0
1679517999983019,122047.0,159253.0,8688.0
1679517999993018,122085.0,159249.0,8681.0
1679518000003018,122106.0,159293.0,8676.0
1679518000013018,122110.0,159322.0,8670.0
1679518000023018,122096.0,159315.0,8686.0
1679518000033018,122136.0,159344.0,8681.0
1679518000043018,122125.0,159379.0,8677.0
1679518000053018,122118.0,159337.0,8684.0
1679518000063018,122142.0,159342.0,8689.0
1679518000073018,122129.0,159335.0,8670.0
1679518000083018,122136.0,159386.0,8681.0
1679518000093018,122122.0,159407.0,8685.0
1679518000103018,122139.0,159437.0,8684.0
1679518000113018,122146.0,159424.0,8676.0
1679518000122018,122132.0,159454.0,8649.0
1679518000132018,122162.0,159445.0,8659.0
1679518000143018,122149.0,159423.0,8654.0
1679518000153019,122146.0,159447.0,8680.0
1679518000163019,122147.0,159428.0,8685.0
1679518000172019,122122.0,159448.0,8683.0
1679518000183019,122120.0,159436.0,8686.0
1679518000194018,122115.0,159424.0,8683.0
1679518000203019,122101.0,159454.0,8675.0
1679518000212019,122130.0,159410.0,8663.0
1679518000223019,122129.0,159399.0,8663.0
1679518000233019,122104.0,159371.0,8672.0
1679518000244018,122102.0,159393.0,8689.0
1679518000252018,122119.0,159426.0,8685.0
1679518000263018,122105.0,159430.0,8680.0
1679518000273018,122115.0,159449.0,8682.0
1679518000284018,122114.0,159454.0,8678.0
1679518000294018,122097.0,159393.0,8687.0
1679518000303018,122096.0,159412.0,8717.0
1679518000313018,122058.0,159422.0,8688.0
1679518000323018,122080.0,159412.0,8691.0
1679518000332019,122078.0,159423.0,8672.0
1679518000343019,122087.0,159425.0,8656.0
1679518000353019,122090.0,159402.0,8677.0
1679518000363019,122091.0,159406.0,8694.0
1679518000372019,122097.0,159405.0,8697.0
1679518000383019,122093.0,159374.0,8690.0
1679518000393019,122088.0,159345.0,8697.0
1679518000403019,122066.0,159376.0,8683.0
1679518000413019,122074.0,159339.0,8691.0
1679518000423019,122074.0,159357.0,8683.0
1679518000433019,122054.0,159364.0,8678.0
1679518000443019,122054.0,159335.0,8686.0
1679518000453019,122058.0,159376.0,8688.0
1679518000463019,122057.0,159373.0,8692.0
1679518000473019,122049.0,159294.0,8694.0
1679518000483019,122035.0,159311.0,8699.0
1679518000493018,122032.0,159338.0,8700.0
1679518000503018,122018.0,159310.0,8692.0
1679518000513019,121996.0,159353.0,8696.0
1679518000523019,121999.0,159328.0,8698.0
1679518000533019,122029.0,159280.0,8690.0
1679518000543019,122023.0,159288.0,8690.0
1679518000553019,122016.0,159297.0,8692.0
1679518000563019,122001.0,159296.0,8694.0
1679518000573019,121989.0,159303.0,8698.0
1679518000582019,121997.0,159262.0,8689.0
1679518000593019,122006.0,159292.0,8685.0
1679518000603019,122000.0,159298.0,8697.0
1679518000613019,121972.0,159257.0,8698.0
1679518000623019,121989.0,159248.0,8691.0
1679518000632019,121974.0,159279.0,8694.0
1679518000643019,121987.0,159296.0,8698.0
1679518000653019,121989.0,159266.0,8689.0
1679518000663019,121965.0,159254.0,8682.0
1679518000672019,121976.0,159277.0,8689.0
1679518000683019,121961.0,159249.0,8692.0
1679518000693019,121957.0,159275.0,8686.0
1679518000704018,121966.0,159276.0,8695.0
1679518000712018,121953.0,159238.0,8699.0
1679518000723018,121957.0,159245.0,8695.0
1679518000733018,121938.0,159232.0,8693.0
1679518000744018,121946.0,159269.0,8689.0
1679518000752018,121943.0,159259.0,8696.0
1679518000762018,121940.0,159255.0,8699.0
1679518000773018,121946.0,159252.0,8649.0
1679518000784018,121928.0,159241.0,8683.0
1679518000792018,121941.0,159242.0,8691.0
1679518000803018,121923.0,159238.0,8691.0
1679518000813018,121927.0,159214.0,8700.0
1679518000823018,121908.0,159253.0,8701.0
1679518000832018,121912.0,159200.0,8696.0
1679518000843018,121917.0,159174.0,8697.0
1679518000853018,121896.0,159194.0,8695.0
1679518000863018,121896.0,159195.0,8691.0
1679518000872019,121899.0,159216.0,8695.0
1679518000882019,121880.0,159192.0,8691.0
1679518000893019,121863.0,159138.0,8673.0
1679518000903019,121853.0,159125.0,8693.0
1679518000913019,121850.0,159110.0,8679.0
1679518000923019,121797.0,159049.0,8691.0
1679518000933019,121795.0,159002.0,8682.0
1679518000942019,121778.0,158985.0,8674.0
1679518000953019,121780.0,159017.0,8650.0
1679518000962019,121769.0,159010.0,8656.0
1679518000973019,121785.0,159011.0,8658.0
1679518000983019,121779.0,159017.0,8674.0
1679518000993018,121780.0,159045.0,8678.0
1679518001003018,121775.0,159048.0,8680.0
1679518001012019,121795.0,159114.0,8671.0
1679518001023018,121777.0,159057.0,8681.0
1679518001033018,121773.0,159070.0,8692.0
1679518001043018,121786.0,159081.0,8689.0
1679518001052019,121783.0,159117.0,8684.0
1679518001062018,121782.0,159098.0,8683.0
1679518001072018,121789.0,159081.0,8680.0
1679518001082018,121771.0,159079.0,8685.0
1679518001091019,121757.0,159060.0,8695.0
1679518001102018,121767.0,159048.0,8670.0
1679518001112018,121774.0,159114.0,8678.0
1679518001121019,121755.0,159026.0,8686.0
1679518001131019,121757.0,159062.0,8643.0
1679518001141018,121761.0,159049.0,8670.0
1679518001152018,121756.0,159048.0,8669.0
1679518001162018,121743.0,159020.0,8663.0
1679518001171018,121740.0,159018.0,8681.0
1679518001181018,121736.0,159021.0,8688.0
1679518001192018,121724.0,158985.0,8676.0
1679518001203018,121720.0,158989.0,8684.0
1679518001211018,121697.0,158965.0,8679.0
1679518001222018,121685.0,158969.0,8686.0
1679518001233019,121710.0,158914.0,8684.0
1679518001243018,121696.0,158926.0,8676.0
1679518001252019,121679.0,158972.0,8662.0
1679518001262019,121694.0,158964.0,8664.0
1679518001273018,121700.0,158956.0,8659.0
1679518001283018,121647.0,158965.0,8698.0
1679518001292019,121688.0,158965.0,8662.0
1679518001302019,121693.0,158985.0,8653.0
1679518001313018,121690.0,159005.0,8683.0
1679518001323018,121653.0,158998.0,8692.0
1679518001332018,121674.0,159020.0,8681.0
1679518001342018,121682.0,159018.0,8668.0
1679518001353018,121694.0,159006.0,8655.0
1679518001362018,121693.0,159005.0,8684.0
1679518001372018,121707.0,158997.0,8676.0
1679518001382018,121698.0,159021.0,8680.0
1679518001393018,121700.0,159003.0,8691.0
1679518001402018,121645.0,159019.0,8674.0
1679518001413019,121690.0,159002.0,8646.0
1679518001422019,121663.0,158990.0,8696.0
1679518001433019,121639.0,158996.0,8697.0
1679518001442019,121604.0,158991.0,8691.0
1679518001453019,121624.0,158966.0,8695.0
1679518001462019,121633.0,158953.0,8674.0
1679518001473019,121614.0,158961.0,8693.0
1679518001482019,121567.0,158919.0,8686.0
1679518001493018,121610.0,158926.0,8688.0
1679518001502019,121594.0,158897.0,8683.0
1679518001513018,121563.0,158895.0,8684.0
1679518001522019,121541.0,158850.0,8685.0
1679518001533018,121565.0,158824.0,8681.0
1679518001542019,121537.0,158823.0,8678.0
1679518001553018,121529.0,158812.0,8688.0
1679518001562018,121498.0,158796.0,8687.0
1679518001573018,121496.0,158772.0,8687.0
1679518001582018,121491.0,158769.0,8687.0
1679518001593019,121524.0,158757.0,8649.0
1679518001602019,121536.0,158750.0,8669.0
1679518001613019,121501.0,158770.0,8674.0
1679518001622019,121521.0,158742.0,8662.0
1679518001632019,121515.0,158723.0,8660.0
1679518001642019,121476.0,158715.0,8674.0
1679518001653019,121504.0,158711.0,8651.0
1679518001663019,121495.0,158712.0,8670.0
1679518001672019,121475.0,158726.0,8686.0
1679518001682019,121442.0,158713.0,8682.0
1679518001693019,121464.0,158689.0,8687.0
1679518001703019,121448.0,158672.0,8693.0
1679518001712019,121470.0,158717.0,8662.0
1679518001722019,121476.0,158694.0,8690.0
1679518001733019,121461.0,158690.0,8637.0
1679518001743018,121473.0,158686.0,8660.0
1679518001752019,121473.0,158676.0,8669.0
1679518001762019,121404.0,158683.0,8693.0
1679518001773019,121425.0,158666.0,8691.0
1679518001783019,121428.0,158658.0,8683.0
1679518001792019,121460.0,158671.0,8688.0
1679518001802019,121440.0,158652.0,8680.0
1679518001813019,121419.0,158638.0,8692.0
1679518001823019,121442.0,158606.0,8690.0
1679518001832019,121426.0,158622.0,8676.0
1679518001842019,121430.0,158609.0,8672.0
1679518001853019,121411.0,158579.0,8694.0
1679518001863019,121417.0,158554.0,8684.0
1679518001872019,121408.0,158550.0,8678.0
1679518001882019,121366.0,158574.0,8695.0
1679518001892019,121366.0,158553.0,8676.0
1679518001903019,121380.0,158558.0,8648.0
1679518001913019,121343.0,158541.0,8685.0
1679518001922019,121370.0,158484.0,8660.0
1679518001932019,121365.0,158505.0,8661.0
1679518001943019,121321.0,158483.0,8688.0
1679518001953019,121318.0,158425.0,8658.0
1679518001962019,121301.0,158416.0,8636.0
1679518001972019,121290.0,158342.0,8671.0
1679518001983019,121271.0,158333.0,8662.0
1679518001993018,121265.0,158326.0,8670.0
1679518002002019,121246.0,158330.0,8657.0
1679518002012019,121235.0,158337.0,8659.0
1679518002023018,121239.0,158359.0,8632.0
1679518002032019,121214.0,158362.0,8671.0
1679518002042019,121199.0,158337.0,8676.0
1679518002052019,121208.0,158350.0,8684.0
1679518002063018,121215.0,158390.0,8681.0
1679518002072018,121217.0,158362.0,8675.0
1679518002082018,121246.0,158407.0,8658.0
1679518002092018,121260.0,158395.0,8671.0
1679518002103018,121241.0,158414.0,8664.0
1679518002113018,121221.0,158401.0,8676.0
1679518002122018,121232.0,158443.0,8657.0
1679518002132019,121275.0,158414.0,8647.0
1679518002143019,121279.0,158417.0,8663.0
1679518002152019,121244.0,158417.0,8667.0
1679518002163019,121244.0,158440.0,8676.0
1679518002172019,121228.0,158432.0,8680.0
1679518002183019,121257.0,158428.0,8686.0
1679518002192019,121267.0,158412.0,8676.0
1679518002203019,121259.0,158396.0,8677.0
1679518002214018,121264.0,158376.0,8672.0
1679518002223019,121231.0,158368.0,8700.0
1679518002232019,121247.0,158333.0,8654.0
1679518002243018,121206.0,158348.0,8672.0
1679518002252019,121182.0,158314.0,8681.0
1679518002263018,121192.0,158294.0,8675.0
1679518002272019,121205.0,158280.0,8666.0
1679518002283018,121192.0,158288.0,8667.0
1679518002292019,121193.0,158273.0,8662.0
1679518002303018,121176.0,158247.0,8665.0
1679518002314019,121171.0,158242.0,8668.0
1679518002323019,121153.0,158231.0,8701.0
1679518002332019,121170.0,158207.0,8661.0
1679518002343019,121161.0,158190.0,8666.0
1679518002352019,121146.0,158197.0,8659.0
1679518002363019,121167.0,158221.0,8661.0
1679518002372019,121166.0,158223.0,8670.0
1679518002382019,121168.0,158215.0,8669.0
1679518002393019,121158.0,158248.0,8666.0
1679518002402019,121136.0,158221.0,8664.0
1679518002414019,121123.0,158247.0,8680.0
1679518002422019,121145.0,158226.0,8666.0
1679518002433019,121105.0,158202.0,8672.0
1679518002442019,121105.0,158185.0,8665.0
1679518002453019,121136.0,158197.0,8662.0
1679518002462019,121105.0,158194.0,8673.0
1679518002472019,121075.0,158161.0,8670.0
1679518002482019,121084.0,158158.0,8673.0
1679518002493018,121072.0,158172.0,8670.0
1679518002502019,121079.0,158129.0,8670.0
1679518002513018,121095.0,158085.0,8665.0
1679518002522019,121094.0,158082.0,8657.0
1679518002533018,121060.0,158118.0,8683.0
1679518002542019,121079.0,158106.0,8669.0
1679518002552019,121065.0,158118.0,8661.0
1679518002562018,121034.0,158089.0,8670.0
1679518002573018,121046.0,158019.0,8668.0
1679518002582018,121050.0,158007.0,8657.0
1679518002592018,121026.0,158034.0,8649.0
1679518002602018,121013.0,158020.0,8662.0
1679518002613018,121014.0,158031.0,8666.0
1679518002622018,121012.0,158021.0,8648.0
1679518002632018,120992.0,158013.0,8662.0
1679518002642018,120977.0,158028.0,8662.0
1679518002653018,120998.0,158015.0,8641.0
1679518002663018,121008.0,158012.0,8646.0
1679518002672019,120980.0,158006.0,8647.0
1679518002682019,120950.0,157982.0,8663.0
1679518002693019,121000.0,157949.0,8663.0
1679518002703019,120983.0,157897.0,8664.0
1679518002712019,120969.0,157908.0,8648.0
1679518002722019,120967.0,157932.0,8660.0
1679518002733019,120961.0,157968.0,8657.0
1679518002743018,120959.0,157961.0,8659.0
1679518002752019,120949.0,157939.0,8659.0
1679518002762019,120961.0,157921.0,8656.0
1679518002773018,120958.0,157896.0,8655.0
1679518002783018,120961.0,157927.0,8644.0
1679518002792019,120949.0,157907.0,8662.0
1679518002802019,120933.0,157914.0,8660.0
1679518002813018,120939.0,157880.0,8653.0
1679518002822018,120940.0,157882.0,8653.0
1679518002832018,120914.0,157879.0,8639.0
1679518002842018,120924.0,157832.0,8645.0
1679518002853019,120921.0,157848.0,8648.0
1679518002863019,120922.0,157848.0,8652.0
1679518002872019,120895.0,157833.0,8647.0
1679518002882019,120892.0,157798.0,8648.0
1679518002893019,120898.0,157800.0,8648.0
1679518002902019,120887.0,157796.0,8644.0
1679518002913019,120882.0,157817.0,8639.0
1679518002922019,120861.0,157806.0,8635.0
1679518002933019,120862.0,157874.0,8643.0
1679518002942019,120876.0,157849.0,8634.0
1679518002953019,120872.0,157872.0,8641.0
1679518002962019,120866.0,157872.0,8629.0
1679518002973019,120853.0,157921.0,8631.0
1679518002982019,120841.0,157920.0,8633.0
1679518002993018,120850.0,157969.0,8627.0
1679518003002019,120854.0,157963.0,8650.0
1679518003013018,120835.0,158006.0,8636.0
1679518003022019,120827.0,157944.0,8641.0
1679518003033019,120833.0,158018.0,8640.0
1679518003042019,120834.0,158011.0,8632.0
1679518003053019,120846.0,158020.0,8641.0
1679518003062019,120865.0,158051.0,8638.0
1679518003073019,120884.0,158093.0,8646.0
1679518003082019,120919.0,158094.0,8645.0
1679518003092019,120955.0,158130.0,8633.0
1679518003102019,120968.0,158174.0,8638.0
1679518003113019,121023.0,158281.0,8659.0
1679518003122019,121049.0,158331.0,8646.0
1679518003132019,121125.0,158403.0,8660.0
1679518003142019,121163.0,158446.0,8653.0
1679518003153019,121176.0,158442.0,8662.0
1679518003163019,121250.0,158462.0,8667.0
1679518003172019,121257.0,158484.0,8667.0
1679518003182019,121294.0,158497.0,8659.0
1679518003193019,121305.0,158509.0,8667.0
1679518003203019,121302.0,158502.0,8673.0
1679518003212019,121306.0,158449.0,8673.0
1679518003222019,121324.0,158433.0,8677.0
1679518003233019,121347.0,158430.0,8677.0
1679518003243018,121377.0,158402.0,8690.0
1679518003252019,121399.0,158383.0,8689.0
1679518003262019,121455.0,158435.0,8700.0
1679518003273018,121493.0,158430.0,8708.0
1679518003283018,121547.0,158420.0,8716.0
1679518003292019,121605.0,158483.0,8716.0
1679518003302019,121637.0,158500.0,8734.0
1679518003313018,121637.0,158515.0,8733.0
1679518003322018,121656.0,158506.0,8738.0
1679518003332018,121664.0,158525.0,8704.0
1679518003342018,121650.0,158514.0,8743.0
1679518003353018,121647.0,158431.0,8752.0
1679518003362018,121641.0,158427.0,8731.0
1679518003372018,121590.0,158418.0,8741.0
1679518003382018,121606.0,158424.0,8747.0
1679518003393019,121580.0,158422.0,8742.0
1679518003403019,121555.0,158413.0,8744.0
1679518003412019,121513.0,158423.0,8745.0
1679518003423019,121534.0,158434.0,8724.0
1679518003433019,121566.0,158421.0,8730.0
1679518003442019,121575.0,158384.0,8750.0
1679518003453019,121538.0,158328.0,8752.0
1679518003462019,121510.0,158285.0,8753.0
1679518003472019,121468.0,158203.0,8752.0
1679518003482019,121432.0,158165.0,8737.0
1679518003492019,121437.0,158158.0,8722.0
1679518003502019,121396.0,158124.0,8747.0
1679518003512019,121401.0,158109.0,8731.0
1679518003524019,121393.0,158096.0,8721.0
1679518003532019,121338.0,158041.0,8759.0
1679518003542019,121385.0,158044.0,8753.0
1679518003552019,121373.0,158039.0,8759.0
1679518003562018,121348.0,158003.0,8753.0
1679518003573019,121317.0,157941.0,8764.0
1679518003582019,121294.0,157848.0,8760.0
1679518003592019,121280.0,157812.0,8739.0
1679518003602019,121278.0,157756.0,8737.0
1679518003612019,121253.0,157700.0,8754.0
1679518003624019,121226.0,157690.0,8763.0
1679518003632019,121217.0,157642.0,8770.0
1679518003642019,121214.0,157598.0,8761.0
1679518003652019,121124.0,157547.0,8769.0
1679518003663019,121066.0,157494.0,8772.0
1679518003672019,121017.0,157421.0,8781.0
1679518003682019,121003.0,157359.0,8772.0
1679518003692019,120984.0,157315.0,8781.0
1679518003703019,120988.0,157315.0,8780.0
1679518003711018,120962.0,157307.0,8779.0
1679518003724018,120964.0,157329.0,8782.0
1679518003732018,120969.0,157314.0,8784.0
1679518003742018,121029.0,157324.0,8764.0
1679518003752019,121032.0,157361.0,8783.0
1679518003762019,121039.0,157400.0,8775.0
1679518003772019,121031.0,157432.0,8747.0
1679518003782019,121063.0,157504.0,8743.0
1679518003791019,121074.0,157523.0,8767.0
1679518003802019,121054.0,157605.0,8784.0
1679518003812018,121095.0,157665.0,8780.0
1679518003824019,121156.0,157748.0,8747.0
1679518003831019,121189.0,157798.0,8790.0
1679518003842018,121203.0,157908.0,8792.0
1679518003852018,121226.0,157956.0,8798.0
1679518003863018,121250.0,157964.0,8802.0
1679518003871018,121229.0,157952.0,8798.0
1679518003882018,121245.0,157918.0,8809.0
1679518003892018,121260.0,157865.0,8818.0
1679518003903018,121244.0,157816.0,8810.0
1679518003912018,121209.0,157715.0,8816.0
1679518003922018,121191.0,157594.0,8808.0
1679518003932019,121086.0,157423.0,8820.0
1679518003943019,121062.0,157234.0,8801.0
1679518003952019,120958.0,157051.0,8832.0
1679518003962019,120846.0,156859.0,8840.0
1679518003972019,120919.0,156897.0,8868.0
1679518003983019,120974.0,156898.0,8856.0
1679518003992019,120999.0,156895.0,8876.0
1679518004001019,121011.0,156949.0,8881.0
1679518004012019,121057.0,157055.0,8838.0
1679518004022019,121128.0,157243.0,8854.0
1679518004032019,121252.0,157466.0,8864.0
1679518004042019,121335.0,157705.0,8869.0
1679518004052019,121405.0,157901.0,8870.0
1679518004062018,121439.0,158062.0,8874.0
1679518004072018,121500.0,158228.0,8819.0
1679518004081019,121523.0,158383.0,8860.0
1679518004092018,121566.0,158500.0,8863.0
1679518004102018,121570.0,158604.0,8847.0
1679518004113019,121614.0,158622.0,8824.0
1679518004121019,121633.0,158607.0,8847.0
1679518004132018,121629.0,158520.0,8875.0
1679518004142018,121582.0,158260.0,8835.0
1679518004152018,121507.0,157904.0,8862.0
1679518004162018,121359.0,157534.0,8887.0
1679518004172018,121225.0,157192.0,8913.0
1679518004182018,121190.0,156976.0,8926.0
1679518004192018,121275.0,156895.0,8939.0
1679518004202018,121339.0,156829.0,8956.0
1679518004212018,121351.0,156794.0,8968.0
1679518004222018,121381.0,156775.0,8970.0
1679518004232018,121398.0,156826.0,8966.0
1679518004242018,121406.0,156868.0,8950.0
1679518004252018,121459.0,156979.0,8946.0
1679518004261018,121511.0,157104.0,8955.0
1679518004272018,121592.0,157275.0,8966.0
1679518004282018,121604.0,157483.0,8953.0
1679518004292019,121715.0,157678.0,8925.0
1679518004302019,121739.0,157826.0,8926.0
1679518004312018,121768.0,157935.0,8942.0
1679518004322018,121780.0,158068.0,8947.0
1679518004332018,121768.0,158176.0,8945.0
1679518004342018,121721.0,158173.0,8934.0
1679518004352018,121708.0,158120.0,8944.0
1679518004362018,121708.0,157990.0,8947.0
1679518004372018,121664.0,157826.0,8937.0
1679518004382018,121586.0,157602.0,8949.0
1679518004392018,121533.0,157403.0,8959.0
1679518004402018,121474.0,157141.0,8974.0
1679518004413018,121412.0,157008.0,8973.0
1679518004421018,121424.0,156899.0,8978.0
1679518004432018,121456.0,156879.0,9002.0
1679518004442018,121436.0,156867.0,9002.0
1679518004453018,121480.0,156878.0,8988.0
1679518004461018,121493.0,156921.0,9007.0
1679518004472019,121516.0,156980.0,9016.0
1679518004482019,121519.0,157062.0,9006.0
1679518004493018,121583.0,157104.0,9017.0
1679518004501018,121611.0,157236.0,8999.0
1679518004512018,121627.0,157332.0,8996.0
1679518004522018,121645.0,157458.0,8998.0
1679518004533018,121665.0,157540.0,8995.0
1679518004541018,121637.0,157649.0,8980.0
1679518004552018,121667.0,157716.0,8975.0
1679518004562018,121664.0,157751.0,8976.0
1679518004573018,121622.0,157744.0,8978.0
1679518004581018,121590.0,157680.0,8958.0
1679518004592018,121540.0,157665.0,8975.0
1679518004602018,121519.0,157548.0,8977.0
1679518004612018,121439.0,157337.0,8965.0
1679518004621018,121356.0,157134.0,8977.0
1679518004632018,121253.0,156917.0,8965.0
1679518004642018,121137.0,156669.0,8966.0
1679518004652019,121028.0,156456.0,8979.0
1679518004662019,120968.0,156332.0,8989.0
1679518004672019,121106.0,156347.0,9001.0
1679518004682019,121157.0,156309.0,9005.0
1679518004692019,121205.0,156342.0,9011.0
1679518004702019,121255.0,156389.0,9007.0
1679518004712019,121273.0,156445.0,9007.0
1679518004722019,121312.0,156525.0,9019.0
1679518004732019,121397.0,156683.0,9013.0
1679518004742019,121531.0,156953.0,9019.0
1679518004752019,121544.0,157159.0,9024.0
1679518004761019,121584.0,157329.0,9017.0
1679518004772019,121637.0,157508.0,9013.0
1679518004782019,121671.0,157674.0,8998.0
1679518004792019,121722.0,157862.0,8991.0
1679518004801019,121713.0,157973.0,8980.0
1679518004812018,121688.0,158048.0,8989.0
1679518004822018,121689.0,158078.0,8982.0
1679518004832019,121649.0,158083.0,8973.0
1679518004841019,121672.0,158022.0,8953.0
1679518004852019,121596.0,157854.0,8970.0
1679518004862019,121546.0,157677.0,8980.0
1679518004872019,121455.0,157462.0,8991.0
1679518004881019,121345.0,157155.0,8992.0
1679518004892019,121278.0,156938.0,8997.0
1679518004902019,121246.0,156725.0,8999.0
1679518004913019,121207.0,156601.0,9004.0
1679518004921018,121223.0,156517.0,9011.0
1679518004932018,121259.0,156479.0,9012.0
1679518004942018,121290.0,156602.0,9009.0
1679518004952018,121340.0,156623.0,9033.0
1679518004961018,121375.0,156677.0,9021.0
1679518004972018,121420.0,156806.0,9032.0
1679518004982018,121458.0,156958.0,9026.0
1679518004992018,121516.0,157138.0,9026.0
1679518005001018,121583.0,157345.0,9029.0
1679518005012019,121649.0,157553.0,9027.0
1679518005022019,121690.0,157761.0,9022.0
1679518005033018,121779.0,157970.0,9005.0
1679518005041018,121822.0,158293.0,8999.0
1679518005052018,121843.0,158582.0,9000.0
1679518005062018,121919.0,158846.0,9003.0
1679518005072018,121959.0,159108.0,9001.0
1679518005081018,122016.0,159292.0,8975.0
1679518005092018,122050.0,159470.0,8996.0
1679518005102018,122071.0,159419.0,9003.0
1679518005112018,122011.0,159147.0,8999.0
1679518005121018,121878.0,158753.0,8995.0
1679518005134018,121680.0,158246.0,8998.0
1679518005142018,121537.0,157757.0,9007.0
1679518005152018,121348.0,157279.0,9016.0
1679518005162018,121246.0,156965.0,9011.0
1679518005172018,121200.0,156777.0,9037.0
1679518005182018,121336.0,156763.0,9065.0
1679518005192019,121392.0,156719.0,9080.0
1679518005202019,121469.0,156681.0,9083.0
1679518005211019,121540.0,156798.0,9072.0
1679518005222019,121626.0,156918.0,9075.0
1679518005231019,121695.0,157089.0,9083.0
1679518005242019,121804.0,157295.0,9060.0
1679518005252019,121876.0,157438.0,9108.0
1679518005262019,121956.0,157537.0,9112.0
1679518005271019,121984.0,157742.0,9070.0
1679518005282019,122022.0,157833.0,9080.0
1679518005291019,122040.0,157998.0,9089.0
1679518005302019,122049.0,158182.0,9081.0
1679518005312018,122049.0,158370.0,9086.0
1679518005322018,122060.0,158587.0,9078.0
1679518005332018,122088.0,158817.0,9078.0
1679518005341019,122098.0,158971.0,9071.0
1679518005352018,122078.0,159080.0,9066.0
1679518005362018,122104.0,159122.0,9074.0
1679518005372019,122122.0,159113.0,9071.0
1679518005382019,122151.0,159014.0,9068.0
1679518005391019,122161.0,158856.0,9040.0
1679518005402019,122161.0,158573.0,9040.0
1679518005412019,122118.0,158316.0,9073.0
1679518005422019,122041.0,158039.0,9092.0
1679518005431019,121921.0,157723.0,9098.0
1679518005442019,121854.0,157492.0,9117.0
1679518005452019,121770.0,157244.0,9125.0
1679518005462019,121711.0,157062.0,9129.0
1679518005471019,121721.0,156995.0,9147.0
1679518005482019,121793.0,156995.0,9153.0
1679518005492019,121820.0,157068.0,9144.0
1679518005502019,121865.0,157209.0,9139.0
1679518005511019,121955.0,157387.0,9149.0
1679518005522019,122051.0,157641.0,9154.0
1679518005532019,122124.0,157844.0,9160.0
1679518005541019,122201.0,158049.0,9152.0
1679518005551019,122203.0,158179.0,9138.0
1679518005562018,122173.0,158307.0,9120.0
1679518005572018,122160.0,158341.0,9125.0
1679518005581019,122129.0,158494.0,9126.0
1679518005591019,122133.0,158646.0,9130.0
1679518005602018,122157.0,158716.0,9133.0
1679518005612018,122146.0,158735.0,9124.0
1679518005621019,122130.0,158656.0,9123.0
1679518005631019,122133.0,158552.0,9124.0
1679518005642018,122129.0,158435.0,9120.0
1679518005652018,122104.0,158397.0,9126.0
1679518005662018,122129.0,158310.0,9124.0
1679518005671018,122143.0,158257.0,9124.0
1679518005682018,122132.0,158194.0,9120.0
1679518005692018,122123.0,158131.0,9135.0
1679518005702018,122109.0,158051.0,9132.0
1679518005711018,122086.0,157986.0,9126.0
1679518005722018,122024.0,157808.0,9122.0
1679518005732019,121971.0,157688.0,9128.0
1679518005742019,121898.0,157529.0,9135.0
1679518005751019,121852.0,157409.0,9121.0
1679518005762019,121836.0,157351.0,9149.0
1679518005771019,121779.0,157299.0,9155.0
1679518005782019,121844.0,157328.0,9156.0
1679518005791019,121888.0,157398.0,9145.0
1679518005802019,121934.0,157486.0,9155.0
1679518005812018,121985.0,157586.0,9159.0
1679518005822018,122030.0,157658.0,9163.0
1679518005831019,122086.0,157793.0,9154.0
1679518005842018,122135.0,157968.0,9159.0
1679518005851019,122180.0,158113.0,9163.0
1679518005862018,122245.0,158253.0,9158.0
1679518005871019,122272.0,158372.0,9151.0
1679518005882018,122294.0,158481.0,9156.0
1679518005891018,122316.0,158654.0,9158.0
1679518005902018,122312.0,158708.0,9145.0
1679518005912019,122308.0,158819.0,9150.0
1679518005922019,122265.0,158855.0,9155.0
1679518005931019,122198.0,158820.0,9151.0
1679518005942019,122156.0,158764.0,9150.0
1679518005952019,122077.0,158653.0,9126.0
1679518005962019,122058.0,158388.0,9157.0
1679518005971019,121970.0,158137.0,9152.0
1679518005981019,121896.0,157858.0,9156.0
1679518005992019,121852.0,157664.0,9161.0
1679518006002019,121830.0,157520.0,9155.0
1679518006011019,121806.0,157381.0,9167.0
1679518006022019,121777.0,157278.0,9168.0
1679518006032019,121764.0,157178.0,9171.0
1679518006041019,121800.0,157162.0,9184.0
1679518006051019,121830.0,157327.0,9175.0
1679518006062018,121966.0,157504.0,9176.0
1679518006072018,122024.0,157613.0,9187.0
1679518006081019,122082.0,157737.0,9182.0
1679518006091019,122123.0,157866.0,9196.0
1679518006102018,122211.0,157990.0,9179.0
1679518006111019,122244.0,158095.0,9189.0
1679518006121019,122223.0,158153.0,9201.0
1679518006131019,122178.0,158162.0,9205.0
1679518006142018,122210.0,158194.0,9205.0
1679518006151018,122188.0,158197.0,9204.0
1679518006162018,122156.0,158206.0,9176.0
1679518006171018,122123.0,158203.0,9205.0
1679518006182018,122153.0,158203.0,9191.0
1679518006191018,122141.0,158208.0,9168.0
1679518006202018,122129.0,158248.0,9214.0
1679518006211018,122158.0,158287.0,9215.0
1679518006222018,122243.0,158326.0,9193.0
1679518006231018,122219.0,158357.0,9215.0
1679518006242018,122265.0,158347.0,9217.0
1679518006251018,122297.0,158342.0,9220.0
1679518006261018,122301.0,158310.0,9177.0
1679518006272019,122294.0,158250.0,9219.0
1679518006282019,122266.0,158186.0,9217.0
1679518006291019,122191.0,158114.0,9229.0
1679518006301019,122164.0,158040.0,9232.0
1679518006311019,122153.0,157996.0,9209.0
1679518006322018,122127.0,157954.0,9227.0
1679518006331019,122135.0,157976.0,9223.0
1679518006341019,122145.0,157991.0,9207.0
1679518006351019,122177.0,158064.0,9210.0
1679518006362018,122217.0,158097.0,9182.0
1679518006371019,122239.0,158131.0,9193.0
1679518006381019,122260.0,158177.0,9191.0
1679518006392018,122272.0,158236.0,9216.0
1679518006402018,122283.0,158269.0,9233.0
1679518006411018,122313.0,158282.0,9207.0
1679518006421018,122318.0,158315.0,9199.0
1679518006431018,122297.0,158297.0,9221.0
1679518006442018,122251.0,158236.0,9202.0
1679518006452019,122218.0,158182.0,9207.0
1679518006461019,122218.0,158101.0,9226.0
1679518006471019,122214.0,158100.0,9225.0
1679518006482019,122228.0,158078.0,9217.0
1679518006492019,122247.0,158108.0,9237.0
1679518006501019,122237.0,158157.0,9245.0
1679518006511019,122243.0,158181.0,9237.0
1679518006522019,122226.0,158164.0,9237.0
1679518006531019,122223.0,158126.0,9223.0
1679518006541019,122131.0,158037.0,9239.0
1679518006551019,122057.0,157995.0,9217.0
1679518006562018,122075.0,157956.0,9222.0
1679518006571019,122098.0,157940.0,9206.0
1679518006581019,122112.0,157943.0,9191.0
1679518006591019,122132.0,157933.0,9226.0
1679518006601019,122162.0,157937.0,9214.0
1679518006611019,122184.0,158001.0,9234.0
1679518006621019,122175.0,158016.0,9212.0
1679518006631019,122212.0,158055.0,9195.0
1679518006642018,122220.0,158076.0,9201.0
1679518006651018,122199.0,158136.0,9235.0
1679518006662018,122163.0,158156.0,9239.0
1679518006671018,122178.0,158154.0,9237.0
1679518006682018,122206.0,158173.0,9246.0
1679518006691018,122206.0,158197.0,9243.0
1679518006702018,122212.0,158213.0,9235.0
1679518006711018,122194.0,158192.0,9244.0
1679518006721018,122203.0,158166.0,9237.0
1679518006731018,122157.0,158137.0,9239.0
1679518006742018,122175.0,158137.0,9240.0
1679518006751018,122176.0,158107.0,9231.0
1679518006761018,122164.0,158089.0,9224.0
1679518006771018,122196.0,158087.0,9228.0
1679518006782018,122212.0,158108.0,9236.0
1679518006790018,122218.0,158124.0,9251.0
1679518006801018,122232.0,158155.0,9231.0
1679518006812018,122243.0,158191.0,9244.0
1679518006822018,122262.0,158227.0,9252.0
1679518006830018,122282.0,158252.0,9212.0
1679518006843018,122297.0,158261.0,9212.0
1679518006852018,122297.0,158264.0,9242.0
1679518006861019,122305.0,158248.0,9255.0
1679518006871019,122318.0,158253.0,9253.0
1679518006881019,122332.0,158257.0,9249.0
1679518006892018,122348.0,158348.0,9268.0
1679518006901018,122380.0,158354.0,9263.0
1679518006912018,122381.0,158417.0,9261.0
1679518006921018,122398.0,158379.0,9274.0
1679518006931018,122418.0,158433.0,9272.0
1679518006941018,122423.0,158449.0,9268.0
1679518006952018,122437.0,158462.0,9288.0
1679518006961018,122425.0,158454.0,9282.0
1679518006971018,122486.0,158484.0,9277.0
1679518006981018,122481.0,158495.0,9294.0
1679518006992019,122510.0,158509.0,9303.0
1679518007001019,122534.0,158523.0,9288.0
1679518007011019,122615.0,158527.0,9309.0
1679518007021019,122661.0,158530.0,9300.0
1679518007031019,122681.0,158609.0,9313.0
1679518007041019,122732.0,158633.0,9291.0
1679518007051019,122776.0,158654.0,9320.0
1679518007061019,122822.0,158676.0,9343.0
1679518007072018,122873.0,158725.0,9338.0
1679518007081019,122910.0,158748.0,9335.0
1679518007091019,122957.0,158831.0,9356.0
1679518007101019,123025.0,158905.0,9361.0
1679518007112018,123077.0,158977.0,9382.0
1679518007121019,123096.0,158989.0,9385.0
1679518007131019,123151.0,159019.0,9383.0
1679518007141018,123201.0,159093.0,9388.0
1679518007152018,123237.0,159120.0,9406.0
1679518007161018,123267.0,159138.0,9411.0
1679518007171019,123278.0,159153.0,9428.0
1679518007181019,123244.0,159136.0,9426.0
1679518007192019,123348.0,159138.0,9432.0
1679518007202019,123399.0,159157.0,9437.0
1679518007211019,123453.0,159167.0,9443.0
1679518007221019,123478.0,159250.0,9446.0
1679518007231019,123535.0,159276.0,9429.0
1679518007242019,123566.0,159300.0,9416.0
1679518007251019,123598.0,159348.0,9447.0
1679518007261019,123643.0,159363.0,9465.0
1679518007272019,123684.0,159402.0,9491.0
1679518007281019,123728.0,159405.0,9491.0
1679518007291019,123757.0,159432.0,9497.0
1679518007301019,123789.0,159494.0,9509.0
1679518007312018,123802.0,159472.0,9510.0
1679518007321019,123825.0,159470.0,9510.0
1679518007331019,123810.0,159453.0,9523.0
1679518007341019,123820.0,159410.0,9533.0
1679518007352019,123813.0,159373.0,9536.0
1679518007361019,123803.0,159407.0,9530.0
1679518007371019,123803.0,159329.0,9544.0
1679518007381019,123790.0,159330.0,9536.0
1679518007392019,123803.0,159370.0,9534.0
1679518007401019,123828.0,159370.0,9546.0
1679518007412019,123824.0,159401.0,9552.0
1679518007421019,123833.0,159378.0,9558.0
1679518007432019,123848.0,159413.0,9566.0
1679518007441019,123875.0,159416.0,9572.0
1679518007452019,123886.0,159437.0,9566.0
1679518007461019,123900.0,159472.0,9571.0
1679518007471019,123882.0,159481.0,9562.0
1679518007481019,123892.0,159469.0,9584.0
1679518007492019,123874.0,159433.0,9586.0
1679518007501019,123835.0,159389.0,9588.0
1679518007511019,123776.0,159304.0,9582.0
1679518007521019,123731.0,159208.0,9583.0
1679518007532019,123678.0,159125.0,9581.0
1679518007541019,123615.0,159096.0,9589.0
1679518007551019,123660.0,158992.0,9576.0
1679518007561019,123675.0,159062.0,9575.0
1679518007572018,123691.0,159105.0,9569.0
1679518007581019,123768.0,159117.0,9579.0
1679518007591019,123817.0,159176.0,9583.0
1679518007601019,123879.0,159200.0,9585.0
1679518007612018,123891.0,159290.0,9601.0
1679518007621019,123921.0,159282.0,9600.0
1679518007631019,123943.0,159279.0,9608.0
1679518007641018,123955.0,159306.0,9608.0
1679518007652018,123954.0,159266.0,9611.0
1679518007661018,123946.0,159280.0,9610.0
1679518007671018,123907.0,159234.0,9595.0
1679518007681018,123862.0,159168.0,9616.0
1679518007692018,123803.0,159134.0,9611.0
1679518007701018,123743.0,159069.0,9585.0
1679518007711019,123711.0,159043.0,9583.0
1679518007721019,123629.0,158959.0,9583.0
1679518007732019,123562.0,158849.0,9567.0
1679518007741019,123465.0,158772.0,9555.0
1679518007751019,123365.0,158669.0,9544.0
1679518007761019,123277.0,158592.0,9527.0
1679518007772019,123164.0,158417.0,9515.0
1679518007781019,123077.0,158303.0,9500.0
1679518007791019,123000.0,158224.0,9492.0
1679518007801019,122924.0,158100.0,9476.0
1679518007812018,122814.0,157974.0,9459.0
1679518007821019,122681.0,157729.0,9444.0
1679518007831019,122519.0,157572.0,9437.0
1679518007841019,122359.0,157384.0,9429.0
1679518007852018,122215.0,157225.0,9422.0
1679518007861019,122087.0,157078.0,9390.0
1679518007871019,121965.0,156947.0,9359.0
1679518007880019,121837.0,156832.0,9357.0
1679518007891018,121723.0,156714.0,9359.0
1679518007901018,121607.0,156615.0,9382.0
1679518007912018,121495.0,156579.0,9372.0
1679518007920018,121422.0,156567.0,9365.0
1679518007931018,121393.0,156569.0,9365.0
1679518007941018,121319.0,156513.0,9387.0
1679518007953018,121290.0,156571.0,9385.0
1679518007961018,121258.0,156530.0,9367.0
1679518007971018,121231.0,156570.0,9382.0
1679518007981018,121230.0,156589.0,9369.0
1679518007992018,121218.0,156601.0,9366.0
1679518008000018,121210.0,156619.0,9347.0
1679518008011018,121215.0,156633.0,9341.0
1679518008021018,121216.0,156655.0,9338.0
1679518008032018,121259.0,156699.0,9328.0
1679518008040018,121302.0,156734.0,9302.0
1679518008053018,121345.0,156819.0,9283.0
1679518008061018,121430.0,156927.0,9285.0
1679518008072018,121506.0,157026.0,9268.0
1679518008080018,121575.0,157160.0,9245.0
1679518008091018,121659.0,157263.0,9257.0
1679518008101018,121729.0,157447.0,9244.0
1679518008112018,121808.0,157656.0,9255.0
1679518008121018,121890.0,157765.0,9264.0
1679518008131018,121955.0,157836.0,9268.0
1679518008141018,121987.0,157857.0,9249.0
1679518008152018,121979.0,157945.0,9256.0
1679518008161018,121984.0,158013.0,9252.0
1679518008171018,121957.0,158115.0,9256.0
1679518008181018,121931.0,158155.0,9255.0
1679518008191018,121982.0,158199.0,9247.0
1679518008201018,121979.0,158259.0,9246.0
1679518008211018,122013.0,158269.0,9213.0
1679518008221018,122018.0,158317.0,9229.0
1679518008231018,122017.0,158313.0,9226.0
1679518008241018,121982.0,158340.0,9214.0
1679518008251019,121982.0,158318.0,9203.0
1679518008260019,121963.0,158326.0,9232.0
1679518008271019,121952.0,158323.0,9229.0
1679518008282019,121930.0,158305.0,9232.0
1679518008291019,121919.0,158312.0,9235.0
1679518008301019,121848.0,158359.0,9228.0
1679518008311019,121848.0,158391.0,9227.0
1679518008321019,121837.0,158409.0,9219.0
1679518008331019,121856.0,158463.0,9212.0
1679518008340019,121859.0,158482.0,9191.0
1679518008351019,121879.0,158525.0,9182.0
1679518008362018,121837.0,158534.0,9198.0
1679518008371019,121869.0,158534.0,9215.0
1679518008381019,121866.0,158574.0,9214.0
1679518008391018,121870.0,158570.0,9213.0
1679518008402018,121874.0,158570.0,9213.0
1679518008411018,121879.0,158605.0,9197.0
1679518008421018,121886.0,158645.0,9208.0
1679518008431019,121864.0,158670.0,9205.0
1679518008441019,121853.0,158637.0,9213.0
1679518008452019,121834.0,158707.0,9203.0
1679518008460018,121809.0,158713.0,9209.0
1679518008471018,121819.0,158719.0,9199.0
1679518008481018,121879.0,158679.0,9204.0
1679518008492018,121862.0,158657.0,9200.0
1679518008501018,121851.0,158672.0,9189.0
1679518008511018,121846.0,158695.0,9194.0
1679518008521018,121860.0,158705.0,9191.0
1679518008532018,121855.0,158716.0,9195.0
1679518008540018,121833.0,158690.0,9194.0
1679518008551018,121835.0,158661.0,9186.0
1679518008561018,121832.0,158636.0,9179.0
1679518008572018,121826.0,158694.0,9191.0
1679518008580018,121840.0,158709.0,9188.0
1679518008591018,121844.0,158741.0,9182.0
1679518008601018,121855.0,158745.0,9180.0
1679518008612019,121842.0,158745.0,9184.0
1679518008621019,121823.0,158750.0,9185.0
1679518008631019,121851.0,158752.0,9180.0
1679518008641019,121844.0,158756.0,9182.0
1679518008651019,121841.0,158762.0,9177.0
1679518008661019,121831.0,158766.0,9172.0
1679518008671019,121827.0,158770.0,9129.0
1679518008681019,121814.0,158766.0,9158.0
1679518008691019,121765.0,158788.0,9168.0
1679518008701019,121781.0,158766.0,9166.0
1679518008711019,121806.0,158781.0,9139.0
1679518008721019,121780.0,158791.0,9164.0
1679518008731019,121797.0,158779.0,9168.0
1679518008741019,121806.0,158782.0,9163.0
1679518008751019,121781.0,158792.0,9158.0
1679518008760019,121752.0,158808.0,9165.0
1679518008771019,121798.0,158789.0,9134.0
1679518008782019,121826.0,158809.0,9160.0
1679518008791019,121828.0,158829.0,9156.0
1679518008800019,121817.0,158827.0,9162.0
1679518008811019,121851.0,158851.0,9110.0
1679518008821019,121852.0,158865.0,9141.0
1679518008831019,121870.0,158882.0,9144.0
1679518008840019,121848.0,158926.0,9163.0
1679518008851019,121843.0,158939.0,9159.0
1679518008861019,121838.0,158938.0,9162.0
1679518008871019,121888.0,158960.0,9131.0
1679518008880019,121889.0,158984.0,9120.0
1679518008891018,121913.0,158983.0,9126.0
1679518008901018,121927.0,159005.0,9143.0
1679518008911018,121943.0,159040.0,9147.0
1679518008921018,121945.0,159049.0,9159.0
1679518008931018,121966.0,159055.0,9155.0
1679518008941018,121970.0,159101.0,9154.0
1679518008951018,121968.0,159108.0,9152.0
1679518008961018,121992.0,159132.0,9145.0
1679518008971019,122029.0,159158.0,9141.0
1679518008981019,122017.0,159148.0,9144.0
1679518008991019,122044.0,159180.0,9149.0
1679518009001019,122061.0,159228.0,9124.0
1679518009011019,122077.0,159238.0,9154.0
1679518009021019,122094.0,159282.0,9149.0
1679518009031019,122072.0,159266.0,9137.0
1679518009040019,122047.0,159253.0,9154.0
1679518009051019,122076.0,159247.0,9134.0
1679518009061019,122082.0,159228.0,9135.0
1679518009071019,122070.0,159235.0,9107.0
1679518009080019,122078.0,159199.0,9114.0
1679518009091019,122078.0,159193.0,9097.0
1679518009101019,122067.0,159181.0,9118.0
1679518009111019,122046.0,159196.0,9125.0
1679518009121019,122032.0,159245.0,9123.0
1679518009131019,122057.0,159227.0,9092.0
1679518009140019,122007.0,159244.0,9138.0
1679518009151018,122065.0,159231.0,9126.0
1679518009161018,122042.0,159259.0,9114.0
1679518009171018,122086.0,159279.0,9092.0
1679518009181018,122082.0,159290.0,9128.0
1679518009191018,122063.0,159309.0,9139.0
1679518009201018,122089.0,159308.0,9132.0
1679518009211018,122098.0,159271.0,9123.0
1679518009221018,122091.0,159298.0,9124.0
1679518009231018,122084.0,159337.0,9128.0
1679518009241018,122089.0,159339.0,9134.0
1679518009251018,122105.0,159377.0,9129.0
1679518009262018,122091.0,159356.0,9135.0
1679518009271018,122098.0,159377.0,9158.0
1679518009281018,122061.0,159361.0,9133.0
1679518009290018,122094.0,159365.0,9101.0
1679518009300018,122102.0,159379.0,9101.0
1679518009311018,122110.0,159379.0,9118.0
1679518009321018,122099.0,159379.0,9120.0
1679518009330019,122097.0,159369.0,9109.0
1679518009340019,122090.0,159368.0,9123.0
1679518009351019,122086.0,159389.0,9130.0
1679518009362018,122081.0,159389.0,9099.0
1679518009371019,122101.0,159392.0,9128.0
1679518009380019,122058.0,159392.0,9128.0
1679518009391018,122076.0,159395.0,9120.0
1679518009401018,122034.0,159395.0,9125.0
1679518009411018,122081.0,159414.0,9127.0
1679518009420019,122050.0,159398.0,9117.0
1679518009431018,122046.0,159414.0,9120.0
1679518009441018,122087.0,159409.0,9116.0
1679518009451018,122067.0,159404.0,9129.0
1679518009460018,122021.0,159394.0,9120.0
1679518009471018,122054.0,159410.0,9121.0
1679518009481018,122085.0,159389.0,9125.0
1679518009491018,122088.0,159407.0,9115.0
1679518009501018,122076.0,159410.0,9120.0
1679518009511019,122070.0,159374.0,9114.0
1679518009521019,122086.0,159353.0,9100.0
1679518009531019,122075.0,159407.0,9095.0
1679518009540019,122061.0,159408.0,9089.0
1679518009551019,122086.0,159418.0,9078.0
1679518009561019,122069.0,159355.0,9103.0
1679518009571019,122070.0,159397.0,9110.0
1679518009580019,122035.0,159416.0,9114.0
1679518009591019,122026.0,159425.0,9107.0
1679518009600019,122028.0,159395.0,9106.0
1679518009611019,122052.0,159417.0,9077.0
1679518009621019,122020.0,159376.0,9114.0
1679518009631019,122048.0,159400.0,9075.0
1679518009640019,122042.0,159390.0,9095.0
1679518009651018,122017.0,159386.0,9096.0
1679518009661018,122039.0,159388.0,9084.0
1679518009670019,122050.0,159411.0,9079.0
1679518009681018,122040.0,159382.0,9103.0
1679518009691019,122026.0,159381.0,9100.0
1679518009701019,122014.0,159362.0,9106.0
1679518009710019,122016.0,159377.0,9094.0
1679518009721019,122017.0,159349.0,9106.0
1679518009731019,122015.0,159347.0,9102.0
1679518009741019,122001.0,159350.0,9100.0
1679518009751019,121999.0,159353.0,9100.0
1679518009760019,121978.0,159341.0,9100.0
1679518009771019,121950.0,159344.0,9100.0
1679518009781019,121981.0,159345.0,9082.0
1679518009790019,121998.0,159337.0,9097.0
1679518009800019,121932.0,159335.0,9098.0
1679518009811019,121961.0,159349.0,9084.0
1679518009821019,121968.0,159335.0,9070.0
1679518009830019,121940.0,159347.0,9103.0
1679518009840019,121944.0,159305.0,9081.0
1679518009851019,121970.0,159306.0,9049.0
1679518009861019,121906.0,159296.0,9089.0
1679518009871019,121927.0,159293.0,9089.0
1679518009880019,121951.0,159254.0,9079.0
1679518009891018,121941.0,159263.0,9082.0
1679518009901018,121902.0,159249.0,9082.0
1679518009912018,121898.0,159263.0,9075.0
1679518009920018,121939.0,159193.0,9081.0
1679518009931018,121942.0,159221.0,9065.0
1679518009941018,121935.0,159210.0,9065.0
1679518009952018,121939.0,159252.0,9075.0
1679518009960018,121970.0,159233.0,9078.0
1679518009971018,121953.0,159235.0,9079.0
1679518009981018,121965.0,159287.0,9071.0
1679518009991018,121976.0,159326.0,9073.0
1679518010000018,121970.0,159313.0,9068.0
1679518010011018,121985.0,159334.0,9063.0
1679518010021018,121977.0,159346.0,9062.0
1679518010031018,121961.0,159330.0,9075.0
1679518010040018,121981.0,159311.0,9071.0
1679518010051019,121970.0,159345.0,9082.0
1679518010061019,121990.0,159349.0,9057.0
1679518010071019,121990.0,159341.0,9080.0
1679518010080019,121978.0,159326.0,9070.0
1679518010091019,121979.0,159353.0,9078.0
1679518010101019,121991.0,159279.0,9071.0
1679518010111019,121975.0,159316.0,9062.0
1679518010121019,121979.0,159309.0,9080.0
1679518010131019,121986.0,159340.0,9074.0
1679518010140019,121985.0,159334.0,9058.0
1679518010151018,121985.0,159342.0,9059.0
1679518010161018,121970.0,159295.0,9071.0
1679518010171018,121990.0,159335.0,9071.0
1679518010180019,121932.0,159315.0,9066.0
1679518010191018,121982.0,159333.0,9064.0
1679518010201018,121953.0,159319.0,9072.0
1679518010211018,121953.0,159303.0,9072.0
1679518010220018,121964.0,159306.0,9055.0
1679518010231019,121964.0,159315.0,9072.0
1679518010241019,121949.0,159321.0,9056.0
1679518010251019,121998.0,159301.0,9064.0
1679518010260019,121982.0,159306.0,9061.0
1679518010271019,121973.0,159292.0,9054.0
1679518010281019,121950.0,159230.0,9051.0
1679518010291019,121968.0,159285.0,9059.0
1679518010300019,121980.0,159277.0,9059.0
1679518010311019,121986.0,159310.0,9063.0
1679518010321019,121981.0,159299.0,9047.0
1679518010330019,121983.0,159301.0,9048.0
1679518010340019,121991.0,159296.0,9043.0
1679518010351019,121990.0,159283.0,9042.0
1679518010361019,121949.0,159297.0,9066.0
1679518010371019,121974.0,159317.0,9057.0
1679518010380019,121983.0,159279.0,9036.0
1679518010391018,121984.0,159283.0,9010.0
1679518010400019,121984.0,159270.0,9016.0
1679518010411019,121987.0,159254.0,9021.0
1679518010420019,121977.0,159255.0,9031.0
1679518010431019,121952.0,159260.0,9057.0
1679518010440019,121951.0,159252.0,9051.0
1679518010451019,121971.0,159278.0,9018.0
1679518010460019,121967.0,159229.0,9044.0
1679518010471019,121964.0,159293.0,9064.0
1679518010481019,122021.0,159279.0,9052.0
1679518010491019,121968.0,159266.0,9061.0
1679518010500019,121979.0,159267.0,9043.0
1679518010511019,121974.0,159283.0,9048.0
1679518010521019,121972.0,159237.0,9051.0
1679518010531019,121973.0,159269.0,9051.0
1679518010540019,121978.0,159262.0,9047.0
1679518010551019,121964.0,159260.0,9051.0
1679518010560019,121976.0,159260.0,9056.0
1679518010571019,121974.0,159275.0,9045.0
1679518010580019,121966.0,159236.0,9042.0
1679518010591019,121954.0,159230.0,9052.0
1679518010600019,121928.0,159226.0,9057.0
1679518010611019,121965.0,159221.0,9047.0
1679518010621019,121960.0,159222.0,9050.0
1679518010630019,121968.0,159232.0,9045.0
1679518010641018,121971.0,159187.0,9028.0
1679518010651018,121954.0,159186.0,9055.0
1679518010661018,121957.0,159176.0,9046.0
1679518010672018,121952.0,159155.0,9029.0
1679518010680018,121946.0,159125.0,9036.0
1679518010691018,121922.0,159073.0,9049.0
1679518010701018,121926.0,159030.0,9043.0
1679518010711018,121912.0,159059.0,9026.0
1679518010720018,121912.0,159053.0,9025.0
1679518010731018,121913.0,159089.0,9036.0
1679518010741018,121921.0,159060.0,9035.0
1679518010751018,121919.0,159071.0,9027.0
1679518010760018,121922.0,159108.0,9033.0
1679518010772019,121918.0,159128.0,9030.0
1679518010781019,121922.0,159101.0,9024.0
1679518010791019,121940.0,159146.0,9038.0
1679518010800019,121953.0,159161.0,9031.0
1679518010810019,121939.0,159153.0,9031.0
1679518010821019,121940.0,159144.0,9006.0
1679518010831019,121946.0,159154.0,9017.0
1679518010840019,121949.0,159161.0,9020.0
1679518010850019,121929.0,159173.0,8999.0
1679518010861019,121954.0,159161.0,9002.0
1679518010871019,121966.0,159180.0,9013.0
1679518010880019,121928.0,159190.0,9037.0
1679518010891018,121950.0,159174.0,9029.0
1679518010901018,121944.0,159166.0,9030.0
1679518010911018,121943.0,159184.0,9033.0
1679518010920019,121963.0,159129.0,9030.0
1679518010931018,121953.0,159156.0,9020.0
1679518010941018,121942.0,159159.0,9026.0
1679518010951019,121944.0,159161.0,9032.0
1679518010960019,121969.0,159116.0,9027.0
1679518010970019,121910.0,159158.0,9028.0
1679518010981019,121936.0,159148.0,9032.0
1679518010991019,121946.0,159144.0,9031.0
1679518011000019,121909.0,159149.0,9017.0
1679518011010019,121939.0,159154.0,8989.0
1679518011021019,121953.0,159135.0,8989.0
1679518011031019,121934.0,159143.0,9012.0
1679518011040019,121954.0,159143.0,8987.0
1679518011050019,121953.0,159133.0,8990.0
1679518011061019,121926.0,159139.0,9008.0
1679518011070019,121944.0,159126.0,8998.0
1679518011080019,121960.0,159125.0,8993.0
1679518011091019,121953.0,159122.0,9026.0
1679518011100019,121957.0,159086.0,9031.0
1679518011111019,121962.0,159081.0,9018.0
1679518011121019,121968.0,159080.0,9027.0
1679518011131019,121956.0,159094.0,9016.0
1679518011140019,121944.0,159122.0,9020.0
1679518011151018,121945.0,159120.0,9031.0
1679518011161018,121959.0,159093.0,9027.0
1679518011170019,121961.0,159086.0,9026.0
1679518011180019,121930.0,159130.0,9027.0
1679518011191018,121961.0,159108.0,9031.0
1679518011201018,121981.0,159143.0,9020.0
1679518011211018,121964.0,159124.0,9024.0
1679518011220018,121968.0,159135.0,9018.0
1679518011231018,121960.0,159097.0,9032.0
1679518011241018,121964.0,159088.0,9020.0
1679518011250018,121960.0,159079.0,9015.0
1679518011260018,121953.0,159114.0,9019.0
1679518011271018,121966.0,159094.0,9028.0
1679518011281018,121970.0,159068.0,9025.0
1679518011290018,121958.0,159114.0,9021.0
1679518011300018,121940.0,159117.0,9027.0
1679518011311019,121928.0,159112.0,9024.0
1679518011321019,121887.0,159101.0,9034.0
1679518011330019,121950.0,159108.0,9016.0
1679518011340019,121954.0,159131.0,9021.0
1679518011351019,121929.0,159114.0,9041.0
1679518011361019,121951.0,159096.0,9025.0
1679518011371019,121957.0,159066.0,9033.0
1679518011380019,121952.0,159026.0,9028.0
1679518011391018,121961.0,159105.0,9029.0
1679518011400019,121955.0,159083.0,9025.0
1679518011411018,121957.0,159103.0,9024.0
1679518011420019,121948.0,159094.0,9024.0
1679518011431018,121955.0,159092.0,9025.0
1679518011440019,121916.0,159082.0,9032.0
1679518011451018,121926.0,159085.0,9040.0
1679518011460018,121894.0,159071.0,9025.0
1679518011471018,121916.0,159047.0,9026.0
1679518011480018,121896.0,159043.0,9027.0
1679518011491019,121924.0,158973.0,9001.0
1679518011500019,121925.0,159012.0,9002.0
1679518011511019,121904.0,158995.0,9021.0
1679518011520019,121916.0,158981.0,9009.0
1679518011531019,121906.0,158991.0,9010.0
1679518011540019,121904.0,158948.0,9010.0
1679518011551019,121884.0,158952.0,9017.0
1679518011560019,121902.0,158954.0,9015.0
1679518011571019,121907.0,158961.0,9017.0
1679518011580019,121896.0,158985.0,9010.0
1679518011590019,121904.0,158976.0,9010.0
1679518011600019,121915.0,159002.0,9018.0
1679518011611019,121918.0,159003.0,8999.0
1679518011621019,121927.0,159020.0,9006.0
1679518011630019,121914.0,159020.0,8985.0
1679518011640019,121917.0,159016.0,9010.0
1679518011651018,121916.0,159020.0,9004.0
1679518011661018,121915.0,159037.0,9003.0
1679518011670019,121922.0,159018.0,9002.0
1679518011681018,121887.0,159035.0,9016.0
1679518011691018,121913.0,158991.0,9009.0
1679518011701018,121890.0,159021.0,9013.0
1679518011710018,121888.0,158999.0,9017.0
1679518011720018,121918.0,158971.0,9007.0
1679518011731018,121923.0,159014.0,9020.0
1679518011741018,121932.0,159032.0,9015.0
1679518011750018,121927.0,159018.0,9010.0
1679518011760018,121925.0,159035.0,8998.0
1679518011771018,121927.0,159003.0,9009.0
1679518011782018,121924.0,158990.0,9018.0
1679518011790018,121931.0,159013.0,9039.0
1679518011800018,121924.0,158995.0,9002.0
1679518011811018,121925.0,158991.0,9014.0
1679518011820018,121939.0,158977.0,9004.0
1679518011830018,121924.0,159003.0,9007.0
1679518011840018,121939.0,158982.0,8974.0
1679518011850019,121933.0,158972.0,8998.0
1679518011861019,121931.0,158955.0,8986.0
1679518011871019,121926.0,158976.0,9007.0
1679518011880019,121926.0,158973.0,9008.0
1679518011890019,121890.0,158968.0,9007.0
1679518011901018,121929.0,158978.0,8998.0
1679518011911018,121904.0,158954.0,9001.0
1679518011920019,121888.0,158969.0,9018.0
1679518011930019,121913.0,158949.0,9005.0
1679518011941018,121940.0,158971.0,9014.0
1679518011951018,121914.0,158958.0,9008.0
1679518011960018,121905.0,158892.0,9008.0
1679518011970018,121910.0,158920.0,9016.0
1679518011981018,121913.0,158951.0,9014.0
1679518011990018,121910.0,158907.0,9002.0
1679518012000018,121881.0,158958.0,9021.0
1679518012010018,121856.0,158936.0,9011.0
1679518012021018,121886.0,158949.0,9020.0
1679518012030019,121900.0,158938.0,8995.0
1679518012040019,121900.0,158948.0,8983.0
1679518012050019,121914.0,158931.0,9005.0
1679518012061019,121920.0,158926.0,9010.0
1679518012071019,121917.0,158881.0,9006.0
1679518012080019,121920.0,158939.0,9020.0
1679518012090019,121907.0,158931.0,9016.0
1679518012101019,121911.0,158939.0,9012.0
1679518012110019,121919.0,158898.0,9003.0
1679518012121019,121910.0,158882.0,9012.0
1679518012130019,121900.0,158898.0,9018.0
1679518012141018,121912.0,158890.0,9023.0
1679518012150019,121917.0,158863.0,8998.0
1679518012161018,121897.0,158896.0,9012.0
1679518012170019,121904.0,158855.0,9010.0
1679518012181018,121907.0,158874.0,9003.0
1679518012190019,121898.0,158912.0,9000.0
1679518012201018,121906.0,158910.0,9017.0
1679518012210018,121905.0,158911.0,8997.0
1679518012221018,121904.0,158914.0,9007.0
1679518012230018,121909.0,158918.0,9004.0
1679518012241018,121901.0,158901.0,9016.0
1679518012250018,121892.0,158877.0,9016.0
1679518012260018,121869.0,158903.0,9004.0
1679518012270018,121886.0,158886.0,9002.0
1679518012280018,121843.0,158881.0,9009.0
1679518012290018,121851.0,158901.0,9016.0
1679518012300018,121903.0,158864.0,8986.0
1679518012310018,121894.0,158872.0,9012.0
1679518012321018,121884.0,158864.0,9011.0
1679518012330018,121874.0,158840.0,9010.0
1679518012340018,121869.0,158820.0,9013.0
1679518012350018,121864.0,158802.0,9010.0
1679518012361018,121870.0,158786.0,8998.0
1679518012371018,121857.0,158723.0,9000.0
1679518012380018,121839.0,158796.0,8998.0
1679518012390019,121846.0,158774.0,9006.0
1679518012400019,121847.0,158787.0,9000.0
1679518012411018,121857.0,158787.0,8993.0
1679518012420019,121849.0,158801.0,8996.0
1679518012430019,121853.0,158798.0,8998.0
1679518012440019,121843.0,158820.0,8968.0
1679518012451018,121867.0,158825.0,8956.0
1679518012459018,121856.0,158792.0,8973.0
1679518012470018,121857.0,158806.0,8988.0
1679518012481018,121861.0,158799.0,9007.0
1679518012490018,121852.0,158810.0,9002.0
1679518012500018,121858.0,158794.0,8997.0
1679518012510018,121852.0,158822.0,8990.0
1679518012521018,121861.0,158822.0,9002.0
1679518012530018,121857.0,158852.0,9004.0
1679518012540018,121868.0,158832.0,8988.0
1679518012550018,121861.0,158844.0,8998.0
1679518012560018,121859.0,158843.0,8989.0
1679518012570019,121836.0,158823.0,9005.0
1679518012580019,121827.0,158835.0,8998.0
1679518012590019,121851.0,158842.0,8999.0
1679518012600019,121866.0,158799.0,9009.0
1679518012610019,121821.0,158804.0,9008.0
1679518012621019,121871.0,158811.0,9006.0
1679518012630019,121858.0,158799.0,9000.0
1679518012641018,121856.0,158800.0,8994.0
1679518012650019,121863.0,158810.0,9010.0
1679518012661018,121856.0,158799.0,9003.0
1679518012670019,121852.0,158793.0,9000.0
1679518012681018,121869.0,158809.0,9001.0
1679518012690019,121858.0,158797.0,8992.0
1679518012701018,121861.0,158803.0,8997.0
1679518012710018,121845.0,158807.0,8993.0
1679518012720018,121864.0,158815.0,9007.0
1679518012730018,121859.0,158813.0,8997.0
1679518012741018,121858.0,158816.0,8979.0
1679518012750019,121848.0,158804.0,8991.0
1679518012760019,121825.0,158800.0,9009.0
1679518012770019,121846.0,158760.0,9001.0
1679518012781019,121859.0,158774.0,8993.0
1679518012790019,121849.0,158760.0,8996.0
1679518012800019,121860.0,158786.0,9007.0
1679518012810019,121856.0,158791.0,9001.0
1679518012821019,121849.0,158826.0,8998.0
1679518012829018,121856.0,158793.0,9007.0
1679518012840018,121849.0,158793.0,8996.0
1679518012850018,121840.0,158800.0,9010.0
1679518012861018,121849.0,158799.0,9000.0
1679518012870018,121863.0,158798.0,8994.0
1679518012880018,121856.0,158798.0,8998.0
1679518012890018,121861.0,158809.0,8999.0
1679518012900018,121855.0,158801.0,8962.0
1679518012910018,121862.0,158795.0,8979.0
1679518012920018,121867.0,158791.0,8954.0
1679518012930019,121856.0,158773.0,8972.0
1679518012940019,121860.0,158784.0,8994.0
1679518012950019,121830.0,158780.0,9007.0
1679518012960018,121845.0,158787.0,8976.0
1679518012970018,121876.0,158798.0,8979.0
1679518012981018,121843.0,158788.0,9009.0
1679518012991018,121852.0,158806.0,9003.0
1679518013000018,121855.0,158819.0,8999.0
1679518013010018,121832.0,158791.0,8993.0
1679518013020018,121856.0,158793.0,8964.0
1679518013030018,121851.0,158760.0,8986.0
1679518013040018,121859.0,158775.0,8984.0
1679518013049018,121858.0,158763.0,9000.0
1679518013060018,121855.0,158758.0,9000.0
1679518013070018,121847.0,158765.0,8974.0
1679518013080018,121863.0,158753.0,8968.0
1679518013089018,121855.0,158755.0,8995.0
1679518013100018,121860.0,158760.0,8969.0
1679518013111019,121834.0,158790.0,9009.0
1679518013121019,121849.0,158740.0,9009.0
1679518013130019,121800.0,158762.0,9017.0
1679518013140019,121820.0,158759.0,9011.0
1679518013150019,121832.0,158743.0,9015.0
1679518013161018,121830.0,158719.0,9009.0
1679518013170019,121816.0,158694.0,8998.0
1679518013180019,121819.0,158714.0,9004.0
1679518013190019,121808.0,158674.0,8990.0
1679518013201018,121807.0,158663.0,9002.0
1679518013209018,121749.0,158684.0,9000.0
1679518013220018,121759.0,158670.0,9000.0
1679518013230018,121780.0,158650.0,9004.0
1679518013241018,121768.0,158669.0,8978.0
1679518013249018,121770.0,158657.0,8989.0
1679518013260018,121788.0,158700.0,8953.0
1679518013270018,121807.0,158673.0,8965.0
1679518013280018,121796.0,158687.0,8983.0
1679518013289018,121810.0,158708.0,8969.0
1679518013300018,121812.0,158692.0,8977.0
1679518013310018,121795.0,158705.0,8980.0
1679518013320018,121804.0,158700.0,8962.0
1679518013330018,121815.0,158719.0,8977.0
1679518013340018,121804.0,158675.0,9003.0
1679518013350018,121816.0,158643.0,9003.0
1679518013361018,121808.0,158678.0,9001.0
1679518013370018,121808.0,158671.0,8998.0
1679518013380018,121815.0,158692.0,8996.0
1679518013390018,121808.0,158711.0,9012.0
1679518013401018,121813.0,158687.0,9004.0
1679518013410018,121806.0,158735.0,8999.0
1679518013420018,121797.0,158734.0,9006.0
1679518013430018,121797.0,158718.0,8997.0
1679518013440018,121770.0,158712.0,9007.0
1679518013450018,121758.0,158708.0,9012.0
1679518013460018,121790.0,158705.0,9003.0
1679518013470018,121789.0,158683.0,9010.0
1679518013480018,121771.0,158697.0,8997.0
1679518013490018,121807.0,158699.0,8999.0
1679518013500018,121795.0,158704.0,9005.0
1679518013510018,121807.0,158690.0,8989.0
1679518013520018,121792.0,158695.0,9015.0
1679518013530018,121785.0,158668.0,9003.0
1679518013540018,121799.0,158634.0,9009.0
1679518013550018,121798.0,158680.0,9007.0
1679518013560018,121803.0,158651.0,9017.0
1679518013570018,121801.0,158631.0,9008.0
1679518013580018,121786.0,158668.0,9006.0
1679518013590018,121791.0,158665.0,9009.0
1679518013600018,121784.0,158616.0,9009.0
1679518013610018,121740.0,158652.0,9007.0
1679518013621018,121790.0,158689.0,9010.0
1679518013629018,121784.0,158682.0,9006.0
1679518013640018,121779.0,158673.0,9005.0
1679518013650019,121782.0,158677.0,9006.0
1679518013661018,121761.0,158673.0,9012.0
1679518013669018,121778.0,158671.0,9011.0
1679518013680018,121777.0,158663.0,9014.0
1679518013690018,121781.0,158671.0,9001.0
1679518013701018,121791.0,158663.0,9013.0
1679518013709018,121748.0,158648.0,9002.0
1679518013720018,121772.0,158631.0,9017.0
1679518013730018,121789.0,158664.0,9005.0
1679518013741018,121774.0,158683.0,9001.0
1679518013749018,121790.0,158675.0,9012.0
1679518013760018,121792.0,158687.0,9013.0
1679518013770018,121779.0,158676.0,9020.0
1679518013781018,121754.0,158697.0,9014.0
1679518013789018,121795.0,158680.0,8997.0
1679518013800017,121795.0,158685.0,9008.0
1679518013810017,121817.0,158662.0,8999.0
1679518013820017,121808.0,158644.0,8994.0
1679518013829019,121794.0,158651.0,9005.0
1679518013840019,121804.0,158663.0,8996.0
1679518013850019,121796.0,158661.0,9005.0
1679518013860019,121803.0,158674.0,9012.0
1679518013870019,121771.0,158658.0,9009.0
1679518013879019,121802.0,158640.0,8988.0
1679518013890019,121803.0,158636.0,9006.0
1679518013901018,121801.0,158640.0,9013.0
1679518013910019,121814.0,158650.0,9010.0
1679518013920019,121792.0,158600.0,9028.0
1679518013930019,121792.0,158575.0,9009.0
1679518013940019,121775.0,158600.0,9022.0
1679518013950019,121783.0,158645.0,9014.0
1679518013960018,121792.0,158659.0,9025.0
1679518013970018,121784.0,158636.0,9019.0
1679518013980018,121788.0,158642.0,9026.0
1679518013990018,121786.0,158664.0,9006.0
1679518014000018,121797.0,158623.0,9019.0
1679518014010019,121813.0,158630.0,9021.0
1679518014020019,121763.0,158606.0,9010.0
1679518014030019,121778.0,158543.0,9016.0
1679518014040019,121773.0,158556.0,9013.0
1679518014050019,121760.0,158557.0,9021.0
1679518014060019,121753.0,158553.0,8993.0
1679518014070019,121758.0,158544.0,8993.0
1679518014079019,121765.0,158544.0,9000.0
1679518014090019,121770.0,158589.0,8987.0
1679518014100019,121766.0,158560.0,8996.0
1679518014110019,121777.0,158573.0,9014.0
1679518014121019,121762.0,158567.0,9005.0
1679518014129018,121756.0,158543.0,9009.0
1679518014140018,121754.0,158571.0,9021.0
1679518014150018,121762.0,158561.0,9006.0
1679518014161018,121758.0,158588.0,9002.0
1679518014169018,121765.0,158615.0,9021.0
1679518014180018,121750.0,158602.0,9004.0
1679518014190019,121755.0,158608.0,9024.0
1679518014201018,121766.0,158608.0,9024.0
1679518014209018,121796.0,158636.0,9024.0
1679518014220018,121760.0,158628.0,9023.0
1679518014230018,121770.0,158632.0,9015.0
1679518014240018,121729.0,158600.0,9031.0
1679518014250018,121757.0,158608.0,8989.0
1679518014259018,121762.0,158616.0,8990.0
1679518014270018,121766.0,158593.0,8998.0
1679518014280018,121755.0,158604.0,8996.0
1679518014290018,121770.0,158603.0,8983.0
1679518014300018,121728.0,158610.0,9025.0
1679518014310018,121762.0,158659.0,9011.0
1679518014321018,121768.0,158590.0,9019.0
1679518014329018,121758.0,158592.0,9023.0
1679518014340018,121757.0,158585.0,9021.0
1679518014350018,121755.0,158570.0,9026.0
1679518014360018,121747.0,158568.0,9024.0
1679518014370019,121764.0,158565.0,9024.0
1679518014380019,121758.0,158543.0,9019.0
1679518014390019,121766.0,158606.0,9014.0
1679518014401018,121765.0,158591.0,9023.0
1679518014410019,121748.0,158576.0,9011.0
1679518014419019,121764.0,158587.0,8987.0
1679518014430019,121758.0,158574.0,9019.0
1679518014440019,121759.0,158573.0,9015.0
1679518014450019,121744.0,158568.0,9014.0
1679518014460018,121756.0,158571.0,9029.0
1679518014470018,121749.0,158535.0,9021.0
1679518014480018,121744.0,158568.0,9030.0
1679518014490018,121753.0,158534.0,9027.0
1679518014502019,121748.0,158541.0,9010.0
1679518014509019,121737.0,158566.0,9020.0
1679518014520018,121741.0,158574.0,9026.0
1679518014530018,121746.0,158589.0,9008.0
1679518014540018,121747.0,158584.0,9022.0
1679518014549018,121719.0,158577.0,9020.0
1679518014560018,121707.0,158593.0,9024.0
1679518014570018,121756.0,158510.0,9026.0
1679518014580018,121736.0,158551.0,9021.0
1679518014590018,121738.0,158570.0,9022.0
1679518014599018,121724.0,158582.0,9025.0
1679518014610018,121702.0,158579.0,9028.0
1679518014620018,121763.0,158575.0,9009.0
1679518014629018,121757.0,158562.0,9015.0
1679518014640018,121751.0,158575.0,9032.0
1679518014650018,121751.0,158574.0,9022.0
1679518014661018,121746.0,158569.0,9027.0
1679518014669018,121747.0,158580.0,9022.0
1679518014680018,121764.0,158564.0,9036.0
1679518014690018,121755.0,158568.0,9019.0
1679518014701018,121735.0,158566.0,9028.0
1679518014709018,121730.0,158541.0,9025.0
1679518014720018,121747.0,158560.0,9025.0
1679518014730019,121741.0,158594.0,9019.0
1679518014740019,121736.0,158574.0,9019.0
1679518014749019,121751.0,158553.0,8993.0
1679518014759019,121748.0,158570.0,9007.0
1679518014770019,121751.0,158551.0,9015.0
1679518014780019,121728.0,158574.0,9021.0
1679518014789019,121738.0,158566.0,9019.0
1679518014799019,121707.0,158560.0,9029.0
1679518014810019,121735.0,158573.0,9023.0
1679518014820019,121735.0,158540.0,8989.0
1679518014829019,121745.0,158570.0,8997.0
1679518014839019,121746.0,158529.0,8999.0
1679518014850019,121748.0,158551.0,9008.0
1679518014860019,121734.0,158514.0,9036.0
1679518014870019,121739.0,158498.0,9010.0
1679518014880019,121725.0,158499.0,9018.0
1679518014890019,121733.0,158494.0,9015.0
1679518014900019,121732.0,158478.0,9013.0
1679518014910019,121726.0,158486.0,9021.0
1679518014919019,121698.0,158465.0,9010.0
1679518014930019,121706.0,158505.0,8993.0
1679518014939019,121708.0,158483.0,8982.0
1679518014950019,121715.0,158478.0,8986.0
1679518014959019,121696.0,158494.0,9011.0
1679518014970018,121711.0,158521.0,9022.0
1679518014980018,121707.0,158524.0,9015.0
1679518014990018,121709.0,158522.0,9015.0
1679518014999019,121702.0,158506.0,9029.0
1679518015010018,121704.0,158527.0,9018.0
1679518015019019,121644.0,158526.0,9026.0
1679518015030018,121672.0,158519.0,9032.0
1679518015039018,121670.0,158530.0,9018.0
1679518015050018,121700.0,158528.0,8990.0
1679518015059018,121710.0,158523.0,8996.0
1679518015070018,121707.0,158515.0,9012.0
1679518015079018,121704.0,158537.0,9017.0
1679518015090019,121728.0,158546.0,9018.0
1679518015099019,121726.0,158530.0,9026.0
1679518015110019,121685.0,158564.0,9014.0
1679518015120019,121710.0,158524.0,9025.0
1679518015130019,121710.0,158530.0,9015.0
1679518015140019,121710.0,158508.0,9021.0
1679518015150019,121715.0,158511.0,9028.0
1679518015160019,121724.0,158456.0,9022.0
1679518015169019,121725.0,158515.0,8988.0
1679518015180019,121723.0,158504.0,9005.0
1679518015189019,121714.0,158530.0,9023.0
1679518015200019,121699.0,158523.0,8995.0
1679518015210018,121707.0,158503.0,8988.0
1679518015219019,121729.0,158521.0,9023.0
1679518015230018,121688.0,158490.0,9028.0
1679518015240018,121706.0,158449.0,9017.0
1679518015250018,121691.0,158475.0,9012.0
1679518015259019,121696.0,158499.0,9026.0
1679518015270019,121686.0,158481.0,9026.0
1679518015280019,121687.0,158454.0,9019.0
1679518015289019,121648.0,158493.0,9020.0
1679518015300019,121644.0,158497.0,9020.0
1679518015310019,121660.0,158472.0,9028.0
1679518015320019,121680.0,158504.0,9022.0
1679518015329019,121657.0,158459.0,9010.0
1679518015339019,121660.0,158462.0,9003.0
1679518015349019,121650.0,158464.0,9023.0
1679518015360019,121629.0,158466.0,9007.0
1679518015370019,121655.0,158471.0,8992.0
1679518015379019,121633.0,158470.0,9028.0
1679518015389019,121647.0,158468.0,9020.0
1679518015400019,121645.0,158474.0,8995.0
1679518015411018,121623.0,158447.0,9028.0
1679518015419018,121628.0,158498.0,9017.0
1679518015430018,121659.0,158457.0,9020.0
1679518015440018,121669.0,158469.0,9013.0
1679518015450019,121638.0,158464.0,9020.0
1679518015459019,121637.0,158442.0,9024.0
1679518015469019,121619.0,158457.0,9022.0
1679518015480018,121608.0,158462.0,9023.0
1679518015490018,121589.0,158447.0,9028.0
1679518015499019,121636.0,158404.0,9025.0
1679518015511019,121640.0,158431.0,9028.0
1679518015520019,121654.0,158450.0,9068.0
1679518015530019,121598.0,158451.0,9023.0
1679518015539019,121616.0,158440.0,9023.0
1679518015549019,121637.0,158445.0,9005.0
1679518015560019,121606.0,158472.0,9029.0
1679518015569019,121599.0,158447.0,9017.0
1679518015579019,121617.0,158455.0,9021.0
1679518015589019,121602.0,158441.0,9020.0
1679518015600019,121594.0,158433.0,9026.0
1679518015609019,121602.0,158429.0,9024.0
1679518015620019,121602.0,158445.0,9026.0
1679518015629019,121644.0,158433.0,9012.0
1679518015640019,121636.0,158420.0,8985.0
1679518015649019,121630.0,158435.0,9032.0
1679518015660019,121620.0,158435.0,9020.0
1679518015669019,121611.0,158440.0,9013.0
1679518015680019,121620.0,158423.0,9023.0
1679518015690019,121611.0,158394.0,9019.0
1679518015700019,121618.0,158357.0,9022.0
1679518015709019,121618.0,158380.0,9016.0
1679518015720018,121594.0,158359.0,9018.0
1679518015729019,121591.0,158343.0,9011.0
1679518015740018,121601.0,158350.0,9020.0
1679518015749019,121597.0,158345.0,9010.0
1679518015760018,121595.0,158363.0,9010.0
1679518015769019,121593.0,158354.0,9008.0
1679518015780018,121571.0,158353.0,9019.0
1679518015789018,121560.0,158371.0,9017.0
1679518015799018,121589.0,158384.0,9017.0
1679518015809019,121585.0,158386.0,9027.0
1679518015820019,121564.0,158382.0,9022.0
1679518015829019,121549.0,158389.0,9020.0
1679518015839019,121551.0,158382.0,9028.0
1679518015849019,121552.0,158386.0,9017.0
1679518015860019,121590.0,158419.0,9020.0
1679518015870019,121558.0,158397.0,9025.0
1679518015879019,121567.0,158385.0,9021.0
1679518015889019,121595.0,158399.0,9010.0
1679518015900019,121592.0,158401.0,9015.0
1679518015910019,121565.0,158410.0,9024.0
1679518015919019,121590.0,158397.0,9018.0
1679518015929019,121560.0,158371.0,9027.0
1679518015940019,121570.0,158378.0,8999.0
1679518015949019,121593.0,158387.0,8977.0
1679518015959019,121580.0,158391.0,8983.0
1679518015969019,121580.0,158349.0,8998.0
1679518015980018,121584.0,158344.0,8999.0
1679518015990019,121575.0,158347.0,9019.0
1679518015999019,121583.0,158344.0,9018.0
1679518016009019,121561.0,158338.0,8990.0
1679518016019019,121579.0,158335.0,8997.0
1679518016029019,121560.0,158318.0,9017.0
1679518016039019,121532.0,158333.0,9022.0
1679518016049019,121528.0,158338.0,9018.0
1679518016060019,121544.0,158307.0,8993.0
1679518016069019,121517.0,158333.0,9018.0
1679518016079019,121535.0,158321.0,9019.0
1679518016089019,121542.0,158309.0,9005.0
1679518016100019,121528.0,158334.0,9016.0
1679518016109019,121522.0,158311.0,9018.0
1679518016120019,121511.0,158320.0,9011.0
1679518016130019,121562.0,158324.0,9015.0
1679518016139019,121554.0,158320.0,9012.0
1679518016150019,121553.0,158322.0,9027.0
1679518016160019,121558.0,158295.0,9025.0
1679518016169019,121559.0,158284.0,9009.0
1679518016179019,121541.0,158288.0,9007.0
1679518016189019,121510.0,158321.0,9013.0
1679518016200019,121519.0,158318.0,8999.0
1679518016209019,121557.0,158326.0,8984.0
1679518016219019,121520.0,158355.0,9029.0
1679518016229019,121551.0,158310.0,8999.0
1679518016240018,121555.0,158328.0,8999.0
1679518016249019,121539.0,158334.0,8985.0
1679518016259019,121551.0,158312.0,9000.0
1679518016269019,121550.0,158309.0,9022.0
1679518016280018,121516.0,158322.0,8999.0
1679518016288018,121533.0,158307.0,8993.0
1679518016299018,121544.0,158300.0,8984.0
1679518016309018,121535.0,158333.0,8999.0
1679518016320018,121543.0,158302.0,8980.0
1679518016329018,121528.0,158308.0,9020.0
1679518016339018,121526.0,158298.0,9021.0
1679518016350019,121531.0,158262.0,9021.0
1679518016360019,121526.0,158258.0,9004.0
1679518016370019,121535.0,158299.0,9019.0
1679518016379019,121523.0,158290.0,9013.0
1679518016389019,121522.0,158283.0,9020.0
1679518016400019,121513.0,158286.0,9018.0
1679518016409019,121523.0,158280.0,9001.0
1679518016419019,121521.0,158291.0,8986.0
1679518016430019,121525.0,158283.0,9014.0
1679518016439019,121538.0,158282.0,9015.0
1679518016450019,121522.0,158282.0,9016.0
1679518016459019,121524.0,158288.0,9018.0
1679518016470018,121511.0,158264.0,9018.0
1679518016479019,121521.0,158204.0,9023.0
1679518016490018,121518.0,158247.0,9017.0
1679518016499019,121521.0,158220.0,9015.0
1679518016509019,121510.0,158227.0,9008.0
1679518016519019,121510.0,158213.0,9013.0
1679518016530019,121495.0,158244.0,9003.0
1679518016539019,121462.0,158241.0,8998.0
1679518016549019,121481.0,158187.0,9012.0
1679518016559019,121471.0,158142.0,9005.0
1679518016570019,121454.0,158166.0,9000.0
1679518016579019,121458.0,158183.0,9016.0
1679518016589019,121459.0,158180.0,9012.0
1679518016599019,121460.0,158174.0,9009.0
1679518016610019,121468.0,158186.0,9011.0
1679518016619019,121476.0,158179.0,9009.0
1679518016629019,121480.0,158242.0,9000.0
1679518016639019,121470.0,158229.0,9002.0
1679518016650019,121493.0,158269.0,8997.0
1679518016659019,121492.0,158293.0,9007.0
1679518016669019,121501.0,158295.0,9004.0
1679518016679019,121495.0,158296.0,9013.0
1679518016690019,121499.0,158319.0,9002.0
1679518016699019,121493.0,158269.0,9004.0
1679518016709019,121521.0,158302.0,9005.0
1679518016719019,121511.0,158302.0,9009.0
1679518016730018,121508.0,158309.0,9010.0
1679518016739019,121504.0,158272.0,9011.0
1679518016749019,121500.0,158310.0,9002.0
1679518016759019,121503.0,158335.0,9001.0
1679518016769019,121476.0,158303.0,9010.0
1679518016780018,121459.0,158283.0,9017.0
1679518016788018,121468.0,158300.0,9018.0
1679518016799018,121459.0,158288.0,9014.0
1679518016809018,121451.0,158275.0,9014.0
1679518016820018,121491.0,158294.0,9005.0
1679518016829018,121515.0,158292.0,8971.0
1679518016839018,121478.0,158259.0,8973.0
1679518016849018,121486.0,158240.0,8987.0
1679518016859018,121494.0,158261.0,8996.0
1679518016870018,121482.0,158264.0,9005.0
1679518016879018,121492.0,158249.0,9011.0
1679518016890019,121486.0,158261.0,9012.0
1679518016899019,121475.0,158235.0,9003.0
1679518016909019,121487.0,158271.0,8984.0
1679518016919019,121488.0,158256.0,8981.0
1679518016929019,121490.0,158285.0,8986.0
1679518016940019,121483.0,158311.0,9000.0
1679518016949019,121485.0,158281.0,8996.0
1679518016959019,121461.0,158296.0,9011.0
1679518016969019,121480.0,158285.0,8992.0
1679518016979019,121482.0,158306.0,9007.0
1679518016989019,121448.0,158274.0,9003.0
1679518016999019,121468.0,158275.0,8993.0
1679518017009019,121479.0,158275.0,8994.0
1679518017019019,121451.0,158265.0,9001.0
1679518017029019,121472.0,158275.0,8996.0
1679518017039018,121447.0,158268.0,8979.0
1679518017049018,121466.0,158242.0,8971.0
1679518017059018,121473.0,158251.0,8974.0
1679518017069019,121464.0,158242.0,8998.0
1679518017079019,121476.0,158233.0,8973.0
1679518017089019,121459.0,158266.0,8998.0
1679518017099019,121458.0,158283.0,8994.0
1679518017109019,121452.0,158242.0,8995.0
1679518017120019,121466.0,158217.0,8987.0
1679518017129019,121457.0,158290.0,8993.0
1679518017139019,121442.0,158196.0,9000.0
1679518017149019,121459.0,158236.0,9005.0
1679518017160019,121458.0,158182.0,9007.0
1679518017169019,121466.0,158184.0,8982.0
1679518017179019,121446.0,158212.0,9002.0
1679518017189019,121452.0,158177.0,8997.0
1679518017200019,121447.0,158163.0,8989.0
1679518017209019,121431.0,158173.0,8991.0
1679518017221019,121433.0,158212.0,9005.0
1679518017229019,121451.0,158213.0,8998.0
1679518017240018,121414.0,158206.0,9001.0
1679518017248019,121421.0,158193.0,8989.0
1679518017259019,121440.0,158204.0,8971.0
1679518017269019,121443.0,158150.0,9003.0
1679518017280018,121443.0,158154.0,8999.0
1679518017289018,121437.0,158179.0,8984.0
1679518017298019,121452.0,158181.0,9000.0
1679518017309018,121449.0,158182.0,8995.0
1679518017319018,121442.0,158187.0,8998.0
1679518017329018,121436.0,158182.0,8970.0
1679518017339018,121418.0,158158.0,8999.0
1679518017349018,121403.0,158114.0,8989.0
1679518017360018,121409.0,158126.0,8997.0
1679518017369018,121391.0,158114.0,8991.0
1679518017379018,121376.0,158105.0,8989.0
1679518017389018,121375.0,158046.0,8987.0
1679518017400018,121369.0,158036.0,8986.0
1679518017409018,121372.0,158041.0,8985.0
1679518017419018,121384.0,158022.0,8978.0
1679518017429019,121375.0,158054.0,8979.0
1679518017440019,121341.0,158126.0,8994.0
1679518017449019,121388.0,158121.0,8985.0
1679518017459019,121395.0,158106.0,8989.0
1679518017469019,121408.0,158073.0,8991.0
1679518017479019,121377.0,158140.0,8966.0
1679518017489019,121424.0,158157.0,8950.0
1679518017498019,121414.0,158148.0,8972.0
1679518017509019,121388.0,158181.0,8983.0
1679518017519019,121391.0,158163.0,8959.0
1679518017529019,121415.0,158180.0,8962.0
1679518017539018,121412.0,158175.0,8988.0
1679518017549018,121419.0,158179.0,8984.0
1679518017559018,121414.0,158144.0,8998.0
1679518017569018,121411.0,158134.0,8991.0
1679518017579018,121411.0,158133.0,8988.0
1679518017589018,121402.0,158145.0,8992.0
1679518017599018,121415.0,158126.0,8992.0
1679518017609019,121405.0,158093.0,8989.0
1679518017620019,121386.0,158138.0,8977.0
1679518017629019,121393.0,158137.0,8983.0
1679518017639019,121371.0,158113.0,8986.0
1679518017649019,121379.0,158097.0,8982.0
1679518017660019,121391.0,158113.0,8994.0
1679518017669019,121380.0,158137.0,8984.0
1679518017679019,121380.0,158123.0,8986.0
1679518017689019,121368.0,158087.0,8975.0
1679518017699019,121365.0,158088.0,8974.0
1679518017709019,121388.0,158095.0,8954.0
1679518017718019,121339.0,158097.0,8983.0
1679518017729019,121335.0,158100.0,8976.0
1679518017740018,121386.0,158084.0,8980.0
1679518017748018,121382.0,158094.0,8977.0
1679518017759018,121359.0,158098.0,8986.0
1679518017769018,121368.0,158083.0,8985.0
1679518017780018,121363.0,158095.0,8977.0
1679518017788019,121362.0,158074.0,8979.0
1679518017798019,121378.0,158036.0,8982.0
1679518017809018,121381.0,158083.0,8966.0
1679518017820018,121381.0,158109.0,8982.0
1679518017829018,121368.0,158095.0,8981.0
1679518017839018,121371.0,158085.0,8985.0
1679518017849018,121375.0,158110.0,8986.0
1679518017859018,121367.0,158115.0,8971.0
1679518017869018,121343.0,158109.0,8970.0
1679518017879018,121318.0,158095.0,8981.0
1679518017889018,121314.0,158074.0,8979.0
1679518017899018,121346.0,158094.0,8974.0
1679518017909018,121329.0,158091.0,8981.0
1679518017919018,121334.0,158080.0,8982.0
1679518017928018,121355.0,158085.0,8970.0
1679518017939018,121374.0,158087.0,8933.0
1679518017949018,121362.0,158081.0,8975.0
1679518017958018,121362.0,158062.0,8945.0
1679518017969019,121364.0,158056.0,8984.0
1679518017979019,121339.0,158055.0,8966.0
1679518017989019,121307.0,158054.0,8975.0
1679518017999019,121320.0,158052.0,8952.0
1679518018008019,121356.0,158055.0,8952.0
1679518018019019,121350.0,158067.0,8966.0
1679518018029019,121349.0,158060.0,8959.0
1679518018038019,121346.0,158049.0,8930.0
1679518018048019,121348.0,158034.0,8947.0
1679518018059018,121341.0,158030.0,8966.0
1679518018070018,121341.0,158045.0,8976.0
1679518018079018,121339.0,158052.0,8964.0
1679518018089018,121347.0,158047.0,8972.0
1679518018099018,121334.0,158013.0,8968.0
1679518018110018,121345.0,158055.0,8970.0
1679518018119018,121355.0,158053.0,8971.0
1679518018129018,121330.0,158042.0,8973.0
1679518018139018,121340.0,157974.0,8973.0
1679518018149019,121343.0,158001.0,8969.0
1679518018159019,121308.0,157974.0,8962.0
1679518018168019,121307.0,158013.0,8939.0
1679518018179019,121311.0,157998.0,8935.0
1679518018189019,121299.0,157960.0,8964.0
1679518018199019,121286.0,157967.0,8954.0
1679518018208019,121234.0,157940.0,8959.0
1679518018219019,121238.0,157924.0,8954.0
1679518018229019,121231.0,157925.0,8958.0
1679518018239019,121261.0,157886.0,8961.0
1679518018248019,121256.0,157921.0,8958.0
1679518018259019,121267.0,157906.0,8942.0
1679518018269019,121267.0,157926.0,8957.0
1679518018279019,121271.0,157954.0,8953.0
1679518018288019,121280.0,157937.0,8931.0
1679518018299018,121292.0,157963.0,8938.0
1679518018308019,121286.0,157973.0,8957.0
1679518018319018,121291.0,157994.0,8926.0
1679518018329019,121280.0,157973.0,8949.0
1679518018339019,121285.0,157950.0,8951.0
1679518018348019,121299.0,157993.0,8946.0
1679518018359019,121295.0,157982.0,8933.0
1679518018369019,121296.0,157994.0,8951.0
1679518018378019,121306.0,158007.0,8909.0
1679518018389019,121306.0,157985.0,8940.0
1679518018399019,121305.0,158001.0,8944.0
1679518018409019,121299.0,158000.0,8917.0
1679518018418019,121294.0,158002.0,8910.0
1679518018428019,121299.0,158001.0,8947.0
1679518018439019,121297.0,157993.0,8892.0
1679518018449019,121274.0,157964.0,8922.0
1679518018459019,121285.0,157957.0,8928.0
1679518018468019,121224.0,157987.0,8947.0
1679518018479019,121249.0,157936.0,8949.0
1679518018489019,121267.0,157955.0,8931.0
1679518018498019,121261.0,157966.0,8937.0
1679518018508019,121228.0,157938.0,8939.0
1679518018519019,121225.0,157929.0,8952.0
1679518018529019,121240.0,157909.0,8943.0
1679518018538019,121253.0,157934.0,8899.0
1679518018548019,121252.0,157920.0,8935.0
1679518018559018,121251.0,157886.0,8949.0
1679518018569018,121248.0,157887.0,8927.0
1679518018579018,121254.0,157905.0,8938.0
1679518018588019,121252.0,157888.0,8926.0
1679518018599018,121241.0,157899.0,8934.0
1679518018609018,121243.0,157915.0,8944.0
1679518018619018,121249.0,157898.0,8935.0
1679518018630018,121240.0,157932.0,8926.0
1679518018639018,121245.0,157930.0,8961.0
1679518018649018,121249.0,157938.0,8920.0
1679518018659018,121250.0,157940.0,8929.0
1679518018668018,121218.0,157934.0,8941.0
1679518018679018,121246.0,157946.0,8930.0
1679518018689019,121245.0,157916.0,8939.0
1679518018699019,121227.0,157945.0,8933.0
1679518018708019,121249.0,157898.0,8934.0
1679518018719019,121247.0,157886.0,8932.0
1679518018731019,121244.0,157878.0,8932.0
1679518018739019,121205.0,157917.0,8939.0
1679518018748019,121250.0,157906.0,8927.0
1679518018759019,121237.0,157883.0,8943.0
1679518018769019,121230.0,157877.0,8933.0
1679518018779019,121237.0,157846.0,8941.0
