time,ecg,hr,rr,marker
1679518625973470876,0.168
1679518625981167334,0.191
1679518625988863792,0.20400000000000001
1679518625996560250,0.20600000000000002
1679518626004256708,0.212
1679518626011953166,0.2
1679518626019649624,0.133
1679518626027346082,0.07
1679518626035042540,0.07200000000000001
1679518626042738998,0.085
1679518626050435456,0.064
1679518626058131914,0.06
1679518626065828372,0.081
1679518626073524830,0.068
1679518626081221288,0.031
1679518626088917746,0.083
1679518626096614204,0.28300000000000003
1679518626104310662,0.541
1679518626112007120,0.737
1679518626119703578,0.635
1679518626127400036,-0.027
1679518626135096494,-0.7000000000000001
1679518626142792952,-0.531
1679518626150489410,-0.031
1679518626158185868,-0.004
1679518626165882326,-0.112
1679518626173578784,-0.035
1679518626181275242,0.004
1679518626188971700,-0.029
1679518626196668158,-0.014
1679518626204364616,0.016
1679518626212061074,0.037
1679518626219757532,0.068
1679518626227453990,0.077
1679518626235150448,0.056
1679518626242846906,0.064
1679518626250543364,0.097
1679518626258239822,0.106
1679518626265936280,0.11
1679518626273632738,0.135
1679518626281329196,0.14300000000000002
1679518626289025654,0.133
1679518626296722112,0.14300000000000002
1679518626304418570,0.168
1679518626312115028,0.183
1679518626319811486,0.187
1679518626327507944,0.187
1679518626335204402,0.197
1679518626342900860,0.20600000000000002
1679518626350597318,0.187
1679518626358293776,0.15
1679518626365990234,0.129
1679518626373686692,0.116
1679518626381383150,0.097
1679518626389079608,0.093
1679518626396776066,0.1
1679518626404472524,0.097
1679518626412168982,0.091
1679518626419865440,0.11
1679518626427561898,0.164
1679518626435258356,0.197
1679518626442954814,0.158
1679518626450651272,0.125
1679518626458347730,0.164
1679518626466044188,0.17200000000000001
1679518626473740646,0.114
1679518626481437104,0.091
1679518626489133562,0.097
1679518626496830020,0.064
1679518626504526478,0.012
1679518626512222936,-0.008
1679518626519919394,-0.008
1679518626527615852,-0.01
1679518626535312342,-0.012,68,947
1679518626543009218,-0.002
1679518626550706094,-0.014
1679518626558402970,-0.083
1679518626566099846,-0.133
1679518626573796722,-0.108
1679518626581493598,-0.122
1679518626589190474,-0.197
1679518626596887350,-0.231
1679518626604584226,-0.23700000000000002
1679518626612281102,-0.258
1679518626619977978,-0.277
1679518626627674854,-0.293
1679518626635371730,-0.281
1679518626643068606,-0.243
1679518626650765482,-0.247
1679518626658462358,-0.26
1679518626666159234,-0.216
1679518626673856110,-0.189
1679518626681552986,-0.20600000000000002
1679518626689249862,-0.20400000000000001
1679518626696946738,-0.187
1679518626704643614,-0.195
1679518626712340490,-0.197
1679518626720037366,-0.164
1679518626727734242,-0.133
1679518626735431118,-0.131
1679518626743127994,-0.133
1679518626750824870,-0.108
1679518626758521746,-0.083
1679518626766218622,-0.077
1679518626773915498,-0.062
1679518626781612374,-0.047
1679518626789309250,-0.05
1679518626797006126,-0.039
1679518626804703002,0.004
1679518626812399878,0.041
1679518626820096754,0.047
1679518626827793630,0.041
1679518626835490506,0.037
1679518626843187382,0.041
1679518626850884258,0.029
1679518626858581134,-0.012
1679518626866278010,-0.022
1679518626873974886,0.01
1679518626881671762,0.029
1679518626889368638,0.018000000000000002
1679518626897065514,0.025
1679518626904762390,0.05
1679518626912459266,0.06
1679518626920156142,0.052000000000000005
1679518626927853018,0.056
1679518626935549894,0.079
1679518626943246770,0.093
1679518626950943646,0.095
1679518626958640522,0.116
1679518626966337398,0.147
1679518626974034274,0.15
1679518626981731150,0.14300000000000002
1679518626989428026,0.16
1679518626997124902,0.154
1679518627004821778,0.131
1679518627012518654,0.125
1679518627020215530,0.129
1679518627027912406,0.131
1679518627035609282,0.135
1679518627043306158,0.145
1679518627051003034,0.16
1679518627058699910,0.195
1679518627066396786,0.293
1679518627074093662,0.512
1679518627081790538,0.808
1679518627089487414,0.977
1679518627097184328,0.631,67,1048
1679518627104880786,-0.256
1679518627112577244,-0.731
1679518627120273702,-0.331
1679518627127970160,0.05
1679518627135666618,-0.004
1679518627143363076,-0.022
1679518627151059534,0.045
1679518627158755992,-0.008
1679518627166452450,-0.064
1679518627174148908,-0.016
1679518627181845366,0.012
1679518627189541824,-0.002
1679518627197238282,0.004
1679518627204934740,0.02
1679518627212631198,0.025
1679518627220327656,0.037
1679518627228024114,0.066
1679518627235720572,0.095
1679518627243417030,0.11
1679518627251113488,0.106
1679518627258809946,0.114
1679518627266506404,0.12
1679518627274202862,0.129
1679518627281899320,0.17200000000000001
1679518627289595778,0.216
1679518627297292236,0.21
1679518627304988694,0.2
1679518627312685152,0.21
1679518627320381610,0.225
1679518627328078068,0.231
1679518627335774526,0.225
1679518627343470984,0.177
1679518627351167442,0.129
1679518627358863900,0.137
1679518627366560358,0.147
1679518627374256816,0.129
1679518627381953274,0.122
1679518627389649732,0.135
1679518627397346190,0.15
1679518627405042648,0.17500000000000002
1679518627412739106,0.21
1679518627420435564,0.21
1679518627428132022,0.164
1679518627435828480,0.12
1679518627443524938,0.112
1679518627451221396,0.11800000000000001
1679518627458917854,0.095
1679518627466614312,0.058
1679518627474310770,0.031
1679518627482007228,-0.002
1679518627489703686,-0.025
1679518627497400144,-0.027
1679518627505096602,-0.033
1679518627512793060,-0.047
1679518627520489518,-0.05
1679518627528185976,-0.047
1679518627535882434,-0.05
1679518627543578892,-0.054
1679518627551275350,-0.05
1679518627558971808,-0.029
1679518627566668266,-0.002
1679518627574364724,0.002
1679518627582061182,-0.02
1679518627589757640,-0.058
1679518627597454098,-0.114
1679518627605150556,-0.166
1679518627612847014,-0.185
1679518627620543472,-0.177
1679518627628239930,-0.17200000000000001
1679518627635936388,-0.183
1679518627643632846,-0.187
1679518627651329304,-0.164
1679518627659025794,-0.139
1679518627666722252,-0.147
1679518627674418710,-0.16
1679518627682115168,-0.135
1679518627689811626,-0.10200000000000001
1679518627697508084,-0.093
1679518627705204542,-0.08700000000000001
1679518627712901000,-0.083
1679518627720597458,-0.095
1679518627728293916,-0.14100000000000001
1679518627735990374,-0.181
1679518627743686832,-0.158
1679518627751383290,-0.14300000000000002
1679518627759079748,-0.179
1679518627766776206,-0.17500000000000002
1679518627774472664,-0.125
1679518627782169122,-0.106
1679518627789865580,-0.11
1679518627797562038,-0.097
1679518627805258496,-0.079
1679518627812954954,-0.07200000000000001
1679518627820651412,-0.07
1679518627828347870,-0.058
1679518627836044328,-0.06
1679518627843740786,-0.085
1679518627851437244,-0.097
1679518627859133702,-0.077
1679518627866830160,-0.052000000000000005
1679518627874526618,-0.041
1679518627882223076,-0.031
1679518627889919534,-0.014
1679518627897615992,-0.008
1679518627905312450,-0.004
1679518627913008908,0.014
1679518627920705366,0.039
1679518627928401824,0.064
1679518627936098282,0.085
1679518627943794740,0.091
1679518627951491198,0.10400000000000001
1679518627959187656,0.135
1679518627966884114,0.127
1679518627974580572,0.089
1679518627982277030,0.083
1679518627989973488,0.095
1679518627997669946,0.08700000000000001
1679518628005366404,0.08700000000000001
1679518628013062862,0.11
1679518628020759320,0.131
1679518628028455778,0.137
1679518628036152236,0.183
1679518628043848694,0.362
1679518628051545152,0.65
1679518628059241610,0.895
1679518628066938068,0.9
1679518628074634526,0.34700000000000003
1679518628082330984,-0.47900000000000004
1679518628090027442,-0.545
1679518628097723900,-0.008
1679518628105420358,0.091
1679518628113116816,-0.106
1679518628120813274,-0.07
1679518628128509732,0.0
1679518628136206190,-0.037
1679518628143902648,-0.022
1679518628151599106,0.016
1679518628159295564,0.02
1679518628166992022,0.035
1679518628174688480,0.052000000000000005
1679518628182384938,0.052000000000000005
1679518628190081396,0.07200000000000001
1679518628197777854,0.10200000000000001
1679518628205474312,0.114
1679518628213170770,0.12
1679518628220867260,0.133,67,1053
1679518628228564136,0.14100000000000001
1679518628236261012,0.14300000000000002
1679518628243957888,0.16
1679518628251654764,0.189
1679518628259351640,0.202
1679518628267048516,0.16
1679518628274745392,0.112
1679518628282442268,0.12
1679518628290139144,0.135
1679518628297836020,0.11800000000000001
1679518628305532896,0.114
1679518628313229772,0.125
1679518628320926648,0.116
1679518628328623524,0.089
1679518628336320400,0.062
1679518628344017276,0.064
1679518628351714152,0.064
1679518628359411028,0.047
1679518628367107904,0.058
1679518628374804780,0.106
1679518628382501656,0.145
1679518628390198532,0.15
1679518628397895408,0.135
1679518628405592284,0.116
1679518628413289160,0.10400000000000001
1679518628420986036,0.091
1679518628428682912,0.066
1679518628436379788,0.041
1679518628444076664,0.029
1679518628451773540,-0.002
1679518628459470416,-0.027
1679518628467167292,-0.016
1679518628474864168,-0.01
1679518628482561044,-0.016
1679518628490257920,-0.008
1679518628497954796,-0.002
1679518628505651672,-0.012
1679518628513348548,-0.016
1679518628521045424,-0.008
1679518628528742300,-0.004
1679518628536439176,-0.012
1679518628544136052,-0.018000000000000002
1679518628551832928,-0.016
1679518628559529804,0.0
1679518628567226680,0.01
1679518628574923556,-0.014
1679518628582620432,-0.035
1679518628590317308,-0.018000000000000002
1679518628598014184,-0.014
1679518628605711060,-0.037
1679518628613407936,-0.077
1679518628621104812,-0.122
1679518628628801688,-0.133
1679518628636498564,-0.127
1679518628644195440,-0.125
1679518628651892316,-0.116
1679518628659589192,-0.11
1679518628667286068,-0.1
1679518628674982944,-0.081
1679518628682679820,-0.077
1679518628690376696,-0.079
1679518628698073572,-0.06
1679518628705770448,-0.037
1679518628713467324,-0.029
1679518628721164200,-0.031
1679518628728861076,-0.027
1679518628736557952,-0.012
1679518628744254828,-0.012
1679518628751951704,-0.022
1679518628759648580,-0.008
1679518628767345456,0.016
1679518628775042332,0.014
1679518628782739244,0.01
1679518628790435702,0.033
1679518628798132160,0.06
1679518628805828618,0.068
1679518628813525076,0.056
1679518628821221534,0.031
1679518628828917992,0.002
1679518628836614450,-0.027
1679518628844310908,-0.054
1679518628852007366,-0.045
1679518628859703824,-0.02
1679518628867400282,-0.031
1679518628875096740,-0.041
1679518628882793198,-0.018000000000000002
1679518628890489656,0.0
1679518628898186114,-0.004
1679518628905882572,0.0
1679518628913579030,0.014
1679518628921275488,0.031
1679518628928971946,0.041
1679518628936668404,0.054
1679518628944364862,0.083
1679518628952061320,0.11
1679518628959757778,0.114
1679518628967454236,0.12
1679518628975150694,0.147
1679518628982847152,0.14300000000000002
1679518628990543610,0.1
1679518628998240068,0.085
1679518629005936526,0.1
1679518629013632984,0.097
1679518629021329442,0.091
1679518629029025900,0.112
1679518629036722358,0.139
1679518629044418816,0.147
1679518629052115274,0.179
1679518629059811732,0.325
1679518629067508190,0.5700000000000001
1679518629075204648,0.789
1679518629082901106,0.835
1679518629090597564,0.385
1679518629098294022,-0.418
1679518629105990480,-0.583
1679518629113686938,-0.097
1679518629121383396,0.058
1679518629129079854,-0.081
1679518629136776312,-0.054
1679518629144472770,0.0
1679518629152169228,-0.025
1679518629159865686,-0.004
1679518629167562144,0.033
1679518629175258602,0.033
1679518629182955060,0.047
1679518629190651518,0.066
1679518629198347976,0.064
1679518629206044434,0.07
1679518629213740892,0.1
1679518629221437350,0.11800000000000001
1679518629229133808,0.11800000000000001
1679518629236830266,0.12
1679518629244526724,0.14100000000000001
1679518629252223182,0.16
1679518629259919640,0.164
1679518629267616098,0.179
1679518629275312556,0.197
1679518629283009014,0.191
1679518629290705472,0.181
1679518629298401930,0.197
1679518629306098388,0.21
1679518629313794846,0.17500000000000002
1679518629321491304,0.122
1679518629329187762,0.116
1679518629336884220,0.127
1679518629344580710,0.112,66,975
1679518629352277586,0.093
1679518629359974462,0.079
1679518629367671338,0.07
1679518629375368214,0.062
1679518629383065090,0.041
1679518629390761966,0.047
1679518629398458842,0.091
1679518629406155718,0.095
1679518629413852594,0.054
1679518629421549470,0.027
1679518629429246346,0.027
1679518629436943222,0.022
1679518629444640098,-0.008
1679518629452336974,-0.029
1679518629460033850,-0.041
1679518629467730726,-0.093
1679518629475427602,-0.131
1679518629483124478,-0.095
1679518629490821354,-0.05
1679518629498518230,-0.06
1679518629506215106,-0.091
1679518629513911982,-0.095
1679518629521608858,-0.081
1679518629529305734,-0.066
1679518629537002610,-0.058
1679518629544699486,-0.056
1679518629552396362,-0.066
1679518629560093238,-0.10400000000000001
1679518629567790114,-0.12
1679518629575486990,-0.10200000000000001
1679518629583183866,-0.108
1679518629590880742,-0.133
1679518629598577618,-0.12
1679518629606274494,-0.10200000000000001
1679518629613971370,-0.114
1679518629621668246,-0.152
1679518629629365122,-0.179
1679518629637061998,-0.158
1679518629644758874,-0.137
1679518629652455750,-0.137
1679518629660152626,-0.12
1679518629667849502,-0.097
1679518629675546378,-0.093
1679518629683243254,-0.1
1679518629690940130,-0.095
1679518629698637006,-0.07
1679518629706333882,-0.056
1679518629714030758,-0.06
1679518629721727634,-0.052000000000000005
1679518629729424510,-0.029
1679518629737121386,-0.018000000000000002
1679518629744818262,-0.014
1679518629752515138,-0.004
1679518629760212014,-0.004
1679518629767908890,-0.004
1679518629775605766,0.025
1679518629783302642,0.056
1679518629790999518,0.06
1679518629798696394,0.045
1679518629806393270,0.014
1679518629814090146,0.0
1679518629821787022,0.01
1679518629829483898,0.006
1679518629837180774,-0.006
1679518629844877650,-0.004
1679518629852574526,0.0
1679518629860271402,0.002
1679518629867968278,0.018000000000000002
1679518629875665154,0.043000000000000003
1679518629883362030,0.047
1679518629891058906,0.037
1679518629898755782,0.054
1679518629906452692,0.085
1679518629914148802,0.1
1679518629921844912,0.095
1679518629929541022,0.093
1679518629937237132,0.11
1679518629944933242,0.10200000000000001
1679518629952629352,0.054
1679518629960325462,0.056
1679518629968021572,0.085
1679518629975717682,0.033
1679518629983413792,-0.02
1679518629991109902,0.01
1679518629998806012,0.045
1679518630006502122,0.039
1679518630014198232,0.041
1679518630021894342,0.056
1679518630029590452,0.07200000000000001
1679518630037286562,0.112
1679518630044982672,0.222
1679518630052678782,0.441
1679518630060374892,0.6970000000000001
1679518630068071002,0.85
1679518630075767112,0.56
1679518630083463222,-0.241
1679518630091159332,-0.677
1679518630098855442,-0.281
1679518630106551552,0.091
1679518630114247662,0.027
1679518630121943772,-0.052000000000000005
1679518630129639882,-0.037
1679518630137335992,-0.047
1679518630145032102,-0.033
1679518630152728212,-0.006
1679518630160424322,-0.016
1679518630168120432,-0.016
1679518630175816542,0.02
1679518630183512652,0.043000000000000003
1679518630191208762,0.05
1679518630198904872,0.066
1679518630206600982,0.077
1679518630214297092,0.079
1679518630221993202,0.089
1679518630229689312,0.114
1679518630237385422,0.139
1679518630245081532,0.145
1679518630252777642,0.14100000000000001
1679518630260473752,0.152
1679518630268169862,0.17500000000000002
1679518630275865972,0.189
1679518630283562082,0.193
1679518630291258192,0.195
1679518630298954302,0.17200000000000001
1679518630306650412,0.129
1679518630314346522,0.114
1679518630322042632,0.133
1679518630329738742,0.137
1679518630337434852,0.12
1679518630345130962,0.10400000000000001
1679518630352827072,0.106
1679518630360523182,0.11800000000000001
1679518630368219292,0.127
1679518630375915402,0.154
1679518630383611512,0.197
1679518630391307622,0.212
1679518630399003732,0.187
1679518630406699842,0.166
1679518630414395952,0.164
1679518630422092062,0.152
1679518630429788172,0.12
1679518630437484282,0.097
1679518630445180392,0.093
1679518630452876502,0.064
1679518630460572612,0.016
1679518630468268730,0.014,65,975
1679518630475965815,0.033
1679518630483662900,0.031
1679518630491359985,0.025
1679518630499057070,0.033
1679518630506754155,0.041
1679518630514451240,0.041
1679518630522148325,0.031
1679518630529845410,0.018000000000000002
1679518630537542495,0.002
1679518630545239580,-0.016
1679518630552936665,-0.039
1679518630560633750,-0.056
1679518630568330835,-0.039
1679518630576027920,-0.052000000000000005
1679518630583725005,-0.112
1679518630591422090,-0.11800000000000001
1679518630599119175,-0.085
1679518630606816260,-0.10200000000000001
1679518630614513345,-0.11800000000000001
1679518630622210430,-0.12
1679518630629907515,-0.177
1679518630637604600,-0.256
1679518630645301685,-0.258
1679518630652998770,-0.222
1679518630660695855,-0.222
1679518630668392940,-0.229
1679518630676090025,-0.20600000000000002
1679518630683787110,-0.177
1679518630691484195,-0.166
1679518630699181280,-0.158
1679518630706878365,-0.14100000000000001
1679518630714575450,-0.125
1679518630722272535,-0.112
1679518630729969620,-0.1
1679518630737666705,-0.075
1679518630745363790,-0.041
1679518630753060875,-0.016
1679518630760757960,-0.01
1679518630768455045,0.0
1679518630776152130,0.022
1679518630783849215,0.031
1679518630791546300,-0.002
1679518630799243385,-0.054
1679518630806940470,-0.064
1679518630814637555,-0.041
1679518630822334640,-0.029
1679518630830031725,0.0
1679518630837728810,0.047
1679518630845425895,0.06
1679518630853122980,0.039
1679518630860820065,0.027
1679518630868517150,0.029
1679518630876214235,0.035
1679518630883911320,0.054
1679518630891608405,0.097
1679518630899305490,0.135
1679518630907002575,0.137
1679518630914699660,0.131
1679518630922396745,0.129
1679518630930093830,0.137
1679518630937790915,0.154
1679518630945488000,0.145
1679518630953185085,0.14300000000000002
1679518630960882170,0.162
1679518630968579255,0.14300000000000002
1679518630976276340,0.12
1679518630983973425,0.133
1679518630991670510,0.131
1679518630999367595,0.108
1679518631007064680,0.122
1679518631014761765,0.195
1679518631022458850,0.343
1679518631030155974,0.581
1679518631037852571,0.808
1679518631045549168,0.87
1679518631053245765,0.456
1679518631060942362,-0.37
1679518631068638959,-0.612
1679518631076335556,-0.08700000000000001
1679518631084032153,0.139
1679518631091728750,-0.054
1679518631099425347,-0.045
1679518631107121944,0.081
1679518631114818541,0.07
1679518631122515138,0.047
1679518631130211735,0.062
1679518631137908332,0.014
1679518631145604929,-0.043000000000000003
1679518631153301526,-0.047
1679518631160998123,-0.041
1679518631168694720,-0.043000000000000003
1679518631176391317,-0.037
1679518631184087914,-0.027
1679518631191784511,-0.004
1679518631199481108,0.022
1679518631207177705,0.037
1679518631214874302,0.043000000000000003
1679518631222570899,0.056
1679518631230267496,0.07200000000000001
1679518631237964093,0.083
1679518631245660690,0.112
1679518631253357287,0.179
1679518631261053884,0.212
1679518631268750481,0.187
1679518631276447078,0.17500000000000002
1679518631284143675,0.17200000000000001
1679518631291840272,0.135
1679518631299536869,0.11
1679518631307233466,0.11
1679518631314930063,0.1
1679518631322626660,0.081
1679518631330323257,0.077
1679518631338019854,0.081
1679518631345716451,0.091
1679518631353413048,0.1
1679518631361109645,0.10400000000000001
1679518631368806242,0.11
1679518631376502839,0.112
1679518631384199436,0.095
1679518631391896033,0.08700000000000001
1679518631399592630,0.085
1679518631407289227,0.06
1679518631414985824,0.018000000000000002
1679518631422682421,-0.006
1679518631430379018,-0.016
1679518631438075615,-0.029
1679518631445772212,-0.047
1679518631453468809,-0.062
1679518631461165406,-0.06
1679518631468862003,-0.047
1679518631476558600,-0.052000000000000005
1679518631484255197,-0.056
1679518631491951794,-0.047
1679518631499648391,-0.05
1679518631507344988,-0.062
1679518631515041585,-0.062
1679518631522738182,-0.054
1679518631530434779,-0.075
1679518631538131376,-0.116
1679518631545827973,-0.131
1679518631553524570,-0.112
1679518631561221167,-0.10200000000000001
1679518631568917764,-0.10400000000000001
1679518631576614361,-0.093
1679518631584310958,-0.081
1679518631592007612,-0.08700000000000001,65,1017
1679518631599704488,-0.091
1679518631607401364,-0.077
1679518631615098240,-0.056
1679518631622795116,-0.043000000000000003
1679518631630491992,-0.043000000000000003
1679518631638188868,-0.075
1679518631645885744,-0.137
1679518631653582620,-0.193
1679518631661279496,-0.227
1679518631668976372,-0.229
1679518631676673248,-0.21
1679518631684370124,-0.21
1679518631692067000,-0.212
1679518631699763876,-0.187
1679518631707460752,-0.158
1679518631715157628,-0.15
1679518631722854504,-0.145
1679518631730551380,-0.131
1679518631738248256,-0.11
1679518631745945132,-0.097
1679518631753642008,-0.089
1679518631761338884,-0.062
1679518631769035760,-0.045
1679518631776732636,-0.07
1679518631784429512,-0.085
1679518631792126388,-0.054
1679518631799823264,-0.029
1679518631807520140,-0.029
1679518631815217016,-0.022
1679518631822913892,-0.008
1679518631830610768,-0.002
1679518631838307644,0.006
1679518631846004520,0.025
1679518631853701396,0.047
1679518631861398272,0.06
1679518631869095148,0.052000000000000005
1679518631876792024,0.054
1679518631884488900,0.085
1679518631892185776,0.108
1679518631899882652,0.106
1679518631907579528,0.114
1679518631915276404,0.145
1679518631922973280,0.16
1679518631930670156,0.162
1679518631938367032,0.183
1679518631946063908,0.191
1679518631953760784,0.156
1679518631961457660,0.122
1679518631969154536,0.129
1679518631976851412,0.15
1679518631984548288,0.154
1679518631992245164,0.154
1679518631999942040,0.164
1679518632007638916,0.177
1679518632015335792,0.222
1679518632023032668,0.362
1679518632030729544,0.604
1679518632038426420,0.858
1679518632046123296,0.916
1679518632053820172,0.41000000000000003
1679518632061517048,-0.402
1679518632069213924,-0.491
1679518632076910800,0.041
1679518632084607676,0.212
1679518632092304552,0.089
1679518632100001428,0.125
1679518632107698304,0.17200000000000001
1679518632115395180,0.139
1679518632123092056,0.156
1679518632130788932,0.197
1679518632138485808,0.183
1679518632146182684,0.131
1679518632153879596,0.085,64,987
1679518632161576472,0.077
1679518632169273348,0.08700000000000001
1679518632176970224,0.095
1679518632184667100,0.11
1679518632192363976,0.093
1679518632200060852,0.041
1679518632207757728,0.025
1679518632215454604,0.06
1679518632223151480,0.077
1679518632230848356,0.066
1679518632238545232,0.068
1679518632246242108,0.08700000000000001
1679518632253938984,0.097
1679518632261635860,0.093
1679518632269332736,0.081
1679518632277029612,0.062
1679518632284726488,0.045
1679518632292423364,0.039
1679518632300120240,0.05
1679518632307817116,0.068
1679518632315513992,0.079
1679518632323210868,0.068
1679518632330907744,0.054
1679518632338604620,0.062
1679518632346301496,0.081
1679518632353998372,0.10200000000000001
1679518632361695248,0.14300000000000002
1679518632369392124,0.17
1679518632377089000,0.14100000000000001
1679518632384785876,0.106
1679518632392482752,0.114
1679518632400179628,0.116
1679518632407876504,0.085
1679518632415573380,0.05
1679518632423270256,0.037
1679518632430967132,0.02
1679518632438664008,-0.004
1679518632446360884,-0.01
1679518632454057760,0.002
1679518632461754636,0.0
1679518632469451512,-0.012
1679518632477148388,-0.016
1679518632484845264,-0.008
1679518632492542140,-0.008
1679518632500239016,-0.01
1679518632507935892,-0.014
1679518632515632768,-0.045
1679518632523329644,-0.083
1679518632531026520,-0.089
1679518632538723396,-0.075
1679518632546420272,-0.062
1679518632554117148,-0.062
1679518632561814024,-0.077
1679518632569510900,-0.079
1679518632577207776,-0.062
1679518632584904652,-0.056
1679518632592601528,-0.056
1679518632600298404,-0.045
1679518632607995280,-0.041
1679518632615692156,-0.043000000000000003
1679518632623389032,-0.037
1679518632631085908,-0.014
1679518632638782784,0.0
1679518632646479660,-0.031
1679518632654176536,-0.097
1679518632661873412,-0.11
1679518632669570288,-0.07200000000000001
1679518632677267164,-0.07200000000000001
1679518632684964040,-0.08700000000000001
1679518632692660916,-0.07
1679518632700357792,-0.06
1679518632708054668,-0.07
1679518632715751580,-0.058
1679518632723448038,-0.025
1679518632731144496,-0.004
1679518632738840954,-0.01
1679518632746537412,-0.018000000000000002
1679518632754233870,-0.018000000000000002
1679518632761930328,-0.052000000000000005
1679518632769626786,-0.12
1679518632777323244,-0.14100000000000001
1679518632785019702,-0.125
1679518632792716160,-0.135
1679518632800412618,-0.145
1679518632808109076,-0.116
1679518632815805534,-0.077
1679518632823501992,-0.064
1679518632831198450,-0.079
1679518632838894908,-0.075
1679518632846591366,-0.05
1679518632854287824,-0.039
1679518632861984282,-0.033
1679518632869680740,-0.004
1679518632877377198,0.02
1679518632885073656,0.01
1679518632892770114,0.012
1679518632900466572,0.054
1679518632908163030,0.077
1679518632915859488,0.068
1679518632923555946,0.077
1679518632931252404,0.097
1679518632938948862,0.08700000000000001
1679518632946645320,0.091
1679518632954341778,0.145
1679518632962038236,0.168
1679518632969734694,0.127
1679518632977431152,0.085
1679518632985127610,0.079
1679518632992824068,0.1
1679518633000520526,0.125
1679518633008216984,0.106
1679518633015913442,0.064
1679518633023609900,0.068
1679518633031306358,0.139
1679518633039002816,0.289
1679518633046699274,0.543
1679518633054395732,0.8250000000000001
1679518633062092190,0.891
1679518633069788648,0.337
1679518633077485106,-0.495
1679518633085181564,-0.537
1679518633092878022,0.008
1679518633100574480,0.15
1679518633108270938,0.033
1679518633115967396,0.079
1679518633123663854,0.122
1679518633131360312,0.10200000000000001
1679518633139056770,0.133
1679518633146753228,0.14100000000000001
1679518633154449686,0.083
1679518633162146144,0.054
1679518633169842602,0.062
1679518633177539060,0.066
1679518633185235518,0.079
1679518633192931976,0.091
1679518633200628434,0.095
1679518633208324892,0.106
1679518633216021350,0.106
1679518633223717808,0.097
1679518633231414266,0.12
1679518633239110724,0.156
1679518633246807182,0.158
1679518633254503640,0.127
1679518633262200098,0.108
1679518633269896556,0.125
1679518633277593046,0.139,64,976
1679518633285289922,0.14300000000000002
1679518633292986798,0.156
1679518633300683674,0.14300000000000002
1679518633308380550,0.08700000000000001
1679518633316077426,0.045
1679518633323774302,0.05
1679518633331471178,0.056
1679518633339168054,0.033
1679518633346864930,0.008
1679518633354561806,0.022
1679518633362258682,0.083
1679518633369955558,0.133
1679518633377652434,0.152
1679518633385349310,0.154
1679518633393046186,0.12
1679518633400743062,0.068
1679518633408439938,0.052000000000000005
1679518633416136814,0.058
1679518633423833690,0.037
1679518633431530566,0.0
1679518633439227442,-0.02
1679518633446924318,-0.037
1679518633454621194,-0.06
1679518633462318070,-0.064
1679518633470014946,-0.052000000000000005
1679518633477711822,-0.047
1679518633485408698,-0.064
1679518633493105574,-0.08700000000000001
1679518633500802450,-0.112
1679518633508499326,-0.129
1679518633516196202,-0.122
1679518633523893078,-0.125
1679518633531589954,-0.133
1679518633539286830,-0.125
1679518633546983706,-0.11800000000000001
1679518633554680582,-0.11800000000000001
1679518633562377458,-0.10400000000000001
1679518633570074334,-0.091
1679518633577771210,-0.097
1679518633585468086,-0.10200000000000001
1679518633593164962,-0.08700000000000001
1679518633600861838,-0.077
1679518633608558714,-0.07
1679518633616255590,-0.064
1679518633623952466,-0.056
1679518633631649342,-0.052000000000000005
1679518633639346218,-0.05
1679518633647043094,-0.052000000000000005
1679518633654739970,-0.081
1679518633662436846,-0.139
1679518633670133722,-0.17
1679518633677830598,-0.15
1679518633685527474,-0.127
1679518633693224350,-0.11800000000000001
1679518633700921226,-0.11
1679518633708618102,-0.097
1679518633716314978,-0.089
1679518633724011854,-0.085
1679518633731708730,-0.075
1679518633739405606,-0.066
1679518633747102482,-0.081
1679518633754799358,-0.106
1679518633762496234,-0.112
1679518633770193110,-0.091
1679518633777889986,-0.068
1679518633785586862,-0.058
1679518633793283738,-0.05
1679518633800980614,-0.035
1679518633808677490,-0.027
1679518633816374366,-0.027
1679518633824071242,-0.018000000000000002
1679518633831768118,0.006
1679518633839465032,0.029
1679518633847161629,0.031
1679518633854858226,0.027
1679518633862554823,0.041
1679518633870251420,0.062
1679518633877948017,0.07
1679518633885644614,0.083
1679518633893341211,0.108
1679518633901037808,0.108
1679518633908734405,0.068
1679518633916431002,0.031
1679518633924127599,0.043000000000000003
1679518633931824196,0.083
1679518633939520793,0.10200000000000001
1679518633947217390,0.112
1679518633954913987,0.131
1679518633962610584,0.114
1679518633970307181,0.077
1679518633978003778,0.07
1679518633985700375,0.07
1679518633993396972,0.022
1679518634001093569,-0.02
1679518634008790166,-0.008
1679518634016486763,0.025
1679518634024183360,0.06
1679518634031879957,0.183
1679518634039576554,0.439
1679518634047273151,0.731
1679518634054969748,0.875
1679518634062666345,0.516
1679518634070362942,-0.31
1679518634078059539,-0.627
1679518634085756136,-0.152
1679518634093452733,0.15
1679518634101149330,0.06
1679518634108845927,0.093
1679518634116542524,0.193
1679518634124239121,0.162
1679518634131935718,0.139
1679518634139632315,0.177
1679518634147328912,0.179
1679518634155025509,0.137
1679518634162722106,0.085
1679518634170418703,0.066
1679518634178115300,0.077
1679518634185811897,0.081
1679518634193508494,0.095
1679518634201205091,0.11800000000000001
1679518634208901688,0.125
1679518634216598285,0.12
1679518634224294882,0.114
1679518634231991479,0.114
1679518634239688076,0.116
1679518634247384673,0.131
1679518634255081270,0.156
1679518634262777867,0.147
1679518634270474464,0.11
1679518634278171061,0.133
1679518634285867658,0.183
1679518634293564255,0.179
1679518634301260852,0.162
1679518634308957449,0.168
1679518634316654046,0.164
1679518634324350643,0.14300000000000002
1679518634332047240,0.129
1679518634339743837,0.133
1679518634347440434,0.15
1679518634355137031,0.152
1679518634362833628,0.137
1679518634370530225,0.129
1679518634378226822,0.129
1679518634385923419,0.12
1679518634393620016,0.106
1679518634401316670,0.11800000000000001,64,1000
1679518634409013407,0.133
1679518634416710144,0.1
1679518634424406881,0.052000000000000005
1679518634432103618,0.045
1679518634439800355,0.035
1679518634447497092,0.002
1679518634455193829,-0.014
1679518634462890566,0.0
1679518634470587303,0.014
1679518634478284040,0.01
1679518634485980777,-0.016
1679518634493677514,-0.043000000000000003
1679518634501374251,-0.079
1679518634509070988,-0.15
1679518634516767725,-0.2
1679518634524464462,-0.183
1679518634532161199,-0.164
1679518634539857936,-0.181
1679518634547554673,-0.189
1679518634555251410,-0.17
1679518634562948147,-0.158
1679518634570644884,-0.158
1679518634578341621,-0.145
1679518634586038358,-0.129
1679518634593735095,-0.131
1679518634601431832,-0.137
1679518634609128569,-0.11800000000000001
1679518634616825306,-0.089
1679518634624522043,-0.081
1679518634632218780,-0.08700000000000001
1679518634639915517,-0.083
1679518634647612254,-0.07200000000000001
1679518634655308991,-0.075
1679518634663005728,-0.11
1679518634670702465,-0.139
1679518634678399202,-0.131
1679518634686095939,-0.129
1679518634693792676,-0.139
1679518634701489413,-0.116
1679518634709186150,-0.08700000000000001
1679518634716882887,-0.085
1679518634724579624,-0.097
1679518634732276361,-0.116
1679518634739973098,-0.131
1679518634747669835,-0.122
1679518634755366572,-0.10400000000000001
1679518634763063309,-0.085
1679518634770760046,-0.068
1679518634778456783,-0.07200000000000001
1679518634786153520,-0.068
1679518634793850257,-0.039
1679518634801546994,-0.018000000000000002
1679518634809243731,-0.016
1679518634816940468,-0.006
1679518634824637205,0.008
1679518634832333942,0.014
1679518634840030679,0.018000000000000002
1679518634847727416,0.033
1679518634855424153,0.058
1679518634863120890,0.068
1679518634870817627,0.06
1679518634878514364,0.064
1679518634886211101,0.08700000000000001
1679518634893907838,0.097
1679518634901604575,0.097
1679518634909301312,0.108
1679518634916998049,0.114
1679518634924694786,0.11
1679518634932391523,0.112
1679518634940088260,0.129
1679518634947784997,0.15
1679518634955481734,0.152
1679518634963178482,0.145
1679518634970875358,0.145
1679518634978572234,0.145
1679518634986269110,0.133
1679518634993965986,0.133
1679518635001662862,0.154
1679518635009359738,0.139
1679518635017056614,0.062
1679518635024753490,-0.002
1679518635032450366,0.006
1679518635040147242,0.031
1679518635047844118,0.018000000000000002
1679518635055540994,0.006
1679518635063237870,0.029
1679518635070934746,0.052000000000000005
1679518635078631622,0.068
1679518635086328498,0.17500000000000002
1679518635094025374,0.42
1679518635101722250,0.6950000000000001
1679518635109419126,0.858
1679518635117116002,0.643
1679518635124812878,-0.1
1679518635132509754,-0.606
1679518635140206630,-0.26
1679518635147903506,0.152
1679518635155600382,0.075
1679518635163297258,-0.041
1679518635170994134,-0.008
1679518635178691010,0.004
1679518635186387886,-0.004
1679518635194084762,0.006
1679518635201781638,0.01
1679518635209478514,0.02
1679518635217175390,0.045
1679518635224872266,0.045
1679518635232569142,0.033
1679518635240266018,0.039
1679518635247962894,0.058
1679518635255659770,0.07
1679518635263356646,0.081
1679518635271053522,0.10400000000000001
1679518635278750398,0.122
1679518635286447274,0.12
1679518635294144150,0.112
1679518635301841026,0.127
1679518635309537902,0.152
1679518635317234778,0.166
1679518635324931654,0.168
1679518635332628530,0.164
1679518635340325406,0.177
1679518635348022282,0.212
1679518635355719158,0.22
1679518635363416034,0.202
1679518635371112910,0.193
1679518635378809786,0.168
1679518635386506662,0.137
1679518635394203538,0.156
1679518635401900414,0.195
1679518635409597290,0.21
1679518635417294166,0.2
1679518635424991042,0.193
1679518635432687918,0.193
1679518635440384794,0.177
1679518635448081670,0.156
1679518635455778546,0.156
1679518635463475422,0.147
1679518635471172298,0.08700000000000001
1679518635478869174,0.022
1679518635486566050,0.018000000000000002
1679518635494262926,0.014
1679518635501959802,-0.018000000000000002
1679518635509656678,-0.031
1679518635517353554,-0.025
1679518635525050466,-0.037,63,1016
1679518635532747342,-0.041
1679518635540444218,-0.027
1679518635548141094,-0.012
1679518635555837970,-0.02
1679518635563534846,-0.039
1679518635571231722,-0.037
1679518635578928598,-0.029
1679518635586625474,-0.062
1679518635594322350,-0.106
1679518635602019226,-0.106
1679518635609716102,-0.1
1679518635617412978,-0.114
1679518635625109854,-0.116
1679518635632806730,-0.097
1679518635640503606,-0.089
1679518635648200482,-0.10400000000000001
1679518635655897358,-0.137
1679518635663594234,-0.185
1679518635671291110,-0.225
1679518635678987986,-0.227
1679518635686684862,-0.21
1679518635694381738,-0.197
1679518635702078614,-0.189
1679518635709775490,-0.187
1679518635717472366,-0.193
1679518635725169242,-0.195
1679518635732866118,-0.187
1679518635740562994,-0.181
1679518635748259870,-0.181
1679518635755956746,-0.164
1679518635763653622,-0.139
1679518635771350498,-0.127
1679518635779047374,-0.112
1679518635786744250,-0.093
1679518635794441126,-0.091
1679518635802138002,-0.093
1679518635809834878,-0.07
1679518635817531754,-0.041
1679518635825228630,-0.035
1679518635832925506,-0.035
1679518635840622382,-0.025
1679518635848319258,-0.01
1679518635856016134,0.0
1679518635863713010,0.01
1679518635871409886,0.027
1679518635879106762,0.045
1679518635886803638,0.039
1679518635894500514,0.035
1679518635902197390,0.06
1679518635909894266,0.079
1679518635917591142,0.081
1679518635925288018,0.083
1679518635932984894,0.093
1679518635940681770,0.1
1679518635948378646,0.10200000000000001
1679518635956075522,0.1
1679518635963772398,0.083
1679518635971469274,0.058
1679518635979166150,0.045
1679518635986863026,0.05
1679518635994559902,0.068
1679518636002256778,0.081
1679518636009953654,0.081
1679518636017650530,0.085
1679518636025347406,0.095
1679518636033044282,0.106
1679518636040741158,0.114
1679518636048438034,0.135
1679518636056134910,0.17500000000000002
1679518636063831786,0.202
1679518636071528662,0.187
1679518636079225538,0.16
1679518636086922450,0.16,63,995
1679518636094618908,0.158
1679518636102315366,0.137
1679518636110011824,0.129
1679518636117708282,0.133
1679518636125404740,0.1
1679518636133101198,0.05
1679518636140797656,0.047
1679518636148494114,0.079
1679518636156190572,0.116
1679518636163887030,0.20400000000000001
1679518636171583488,0.406
1679518636179279946,0.666
1679518636186976404,0.764
1679518636194672862,0.337
1679518636202369320,-0.485
1679518636210065778,-0.733
1679518636217762236,-0.258
1679518636225458694,0.002
1679518636233155152,-0.093
1679518636240851610,-0.075
1679518636248548068,-0.008
1679518636256244526,-0.039
1679518636263940984,-0.037
1679518636271637442,0.01
1679518636279333900,0.016
1679518636287030358,0.016
1679518636294726816,0.047
1679518636302423274,0.062
1679518636310119732,0.056
1679518636317816190,0.07
1679518636325512648,0.10200000000000001
1679518636333209106,0.116
1679518636340905564,0.114
1679518636348602022,0.11800000000000001
1679518636356298480,0.137
1679518636363994938,0.15
1679518636371691396,0.152
1679518636379387854,0.168
1679518636387084312,0.191
1679518636394780770,0.187
1679518636402477228,0.177
1679518636410173686,0.191
1679518636417870144,0.214
1679518636425566602,0.214
1679518636433263060,0.2
1679518636440959518,0.191
1679518636448655976,0.183
1679518636456352434,0.156
1679518636464048892,0.129
1679518636471745350,0.125
1679518636479441808,0.129
1679518636487138266,0.11800000000000001
1679518636494834724,0.122
1679518636502531182,0.162
1679518636510227640,0.191
1679518636517924098,0.181
1679518636525620556,0.154
1679518636533317014,0.139
1679518636541013472,0.125
1679518636548709930,0.091
1679518636556406388,0.056
1679518636564102846,0.045
1679518636571799304,0.037
1679518636579495762,0.008
1679518636587192220,0.0
1679518636594888678,0.01
1679518636602585136,0.002
1679518636610281594,-0.018000000000000002
1679518636617978052,-0.027
1679518636625674510,-0.031
1679518636633370968,-0.043000000000000003
1679518636641067426,-0.052000000000000005
1679518636648763916,-0.047
1679518636656460792,-0.02
1679518636664157668,-0.012
1679518636671854544,-0.066
1679518636679551420,-0.10400000000000001
1679518636687248296,-0.093
1679518636694945172,-0.114
1679518636702642048,-0.156
1679518636710338924,-0.152
1679518636718035800,-0.14300000000000002
1679518636725732676,-0.20400000000000001
1679518636733429552,-0.28700000000000003
1679518636741126428,-0.28500000000000003
1679518636748823304,-0.233
1679518636756520180,-0.216
1679518636764217056,-0.22
1679518636771913932,-0.202
1679518636779610808,-0.187
1679518636787307684,-0.181
1679518636795004560,-0.158
1679518636802701436,-0.152
1679518636810398312,-0.164
1679518636818095188,-0.129
1679518636825792064,-0.079
1679518636833488940,-0.062
1679518636841185816,-0.052000000000000005
1679518636848882692,-0.05
1679518636856579568,-0.066
1679518636864276444,-0.07
1679518636871973320,-0.05
1679518636879670196,-0.037
1679518636887367072,-0.016
1679518636895063948,0.022
1679518636902760824,0.027
1679518636910457700,0.01
1679518636918154576,0.033
1679518636925851452,0.06
1679518636933548328,0.058
1679518636941245204,0.037
1679518636948942080,-0.006
1679518636956638956,-0.025
1679518636964335832,0.01
1679518636972032708,0.014
1679518636979729584,-0.012
1679518636987426460,0.002
1679518636995123336,0.016
1679518637002820212,0.002
1679518637010517088,0.022
1679518637018213964,0.058
1679518637025910840,0.033
1679518637033607716,0.006
1679518637041304592,0.035
1679518637049001468,0.075
1679518637056698344,0.095
1679518637064395220,0.097
1679518637072092096,0.12
1679518637079788972,0.16
1679518637087485848,0.177
1679518637095182724,0.17200000000000001
1679518637102879600,0.17
1679518637110576476,0.147
1679518637118273352,0.10200000000000001
1679518637125970228,0.081
1679518637133667104,0.085
1679518637141363980,0.085
1679518637149060856,0.089
1679518637156757732,0.10200000000000001
1679518637164454608,0.122
1679518637172151484,0.116
1679518637179848360,0.089
1679518637187545236,0.162
1679518637195242112,0.404
1679518637202938988,0.677
1679518637210635902,0.802,63,1056
1679518637218332778,0.452
1679518637226029654,-0.377
1679518637233726530,-0.735
1679518637241423406,-0.28700000000000003
1679518637249120282,0.047
1679518637256817158,-0.016
1679518637264514034,-0.033
1679518637272210910,0.022
1679518637279907786,0.012
1679518637287604662,0.016
1679518637295301538,0.027
1679518637302998414,-0.012
1679518637310695290,-0.022
1679518637318392166,0.004
1679518637326089042,0.002
1679518637333785918,0.002
1679518637341482794,0.035
1679518637349179670,0.064
1679518637356876546,0.064
1679518637364573422,0.06
1679518637372270298,0.079
1679518637379967174,0.106
1679518637387664050,0.114
1679518637395360926,0.122
1679518637403057802,0.145
1679518637410754678,0.154
1679518637418451554,0.145
1679518637426148430,0.154
1679518637433845306,0.17
1679518637441542182,0.147
1679518637449239058,0.10400000000000001
1679518637456935934,0.089
1679518637464632810,0.097
1679518637472329686,0.097
1679518637480026562,0.091
1679518637487723438,0.091
1679518637495420314,0.095
1679518637503117190,0.083
1679518637510814066,0.079
1679518637518510942,0.116
1679518637526207818,0.164
1679518637533904694,0.187
1679518637541601570,0.166
1679518637549298446,0.125
1679518637556995322,0.114
1679518637564692198,0.127
1679518637572389074,0.125
1679518637580085950,0.1
1679518637587782826,0.066
1679518637595479702,0.027
1679518637603176578,-0.022
1679518637610873454,-0.02
1679518637618570330,0.004
1679518637626267206,-0.012
1679518637633964082,-0.029
1679518637641660958,-0.022
1679518637649357834,-0.035
1679518637657054710,-0.043000000000000003
1679518637664751586,-0.01
1679518637672448462,0.031
1679518637680145338,0.02
1679518637687842214,-0.043000000000000003
1679518637695539090,-0.089
1679518637703235966,-0.079
1679518637710932842,-0.066
1679518637718629718,-0.079
1679518637726326594,-0.083
1679518637734023470,-0.075
1679518637741720346,-0.07200000000000001
1679518637749417222,-0.07200000000000001
1679518637757114098,-0.062
1679518637764810974,-0.043000000000000003
1679518637772507886,-0.039
1679518637780204344,-0.047
1679518637787900802,-0.041
1679518637795597260,-0.016
1679518637803293718,-0.012
1679518637810990176,-0.029
1679518637818686634,-0.018000000000000002
1679518637826383092,0.01
1679518637834079550,-0.01
1679518637841776008,-0.062
1679518637849472466,-0.068
1679518637857168924,-0.045
1679518637864865382,-0.047
1679518637872561840,-0.056
1679518637880258298,-0.039
1679518637887954756,-0.016
1679518637895651214,-0.02
1679518637903347672,-0.029
1679518637911044130,-0.014
1679518637918740588,0.002
1679518637926437046,0.0
1679518637934133504,-0.016
1679518637941829962,-0.025
1679518637949526420,-0.008
1679518637957222878,0.0
1679518637964919336,-0.016
1679518637972615794,-0.02
1679518637980312252,-0.012
1679518637988008710,-0.006
1679518637995705168,0.006
1679518638003401626,0.027
1679518638011098084,0.033
1679518638018794542,0.025
1679518638026491000,0.029
1679518638034187458,0.054
1679518638041883916,0.07200000000000001
1679518638049580374,0.07200000000000001
1679518638057276832,0.07
1679518638064973290,0.077
1679518638072669748,0.093
1679518638080366206,0.106
1679518638088062664,0.131
1679518638095759122,0.17
1679518638103455580,0.185
1679518638111152038,0.168
1679518638118848496,0.156
1679518638126544954,0.158
1679518638134241412,0.147
1679518638141937870,0.122
1679518638149634328,0.11800000000000001
1679518638157330786,0.137
1679518638165027244,0.15
1679518638172723702,0.14100000000000001
1679518638180420160,0.122
1679518638188116618,0.083
1679518638195813076,0.047
1679518638203509534,0.145
1679518638211205992,0.422
1679518638218902450,0.7020000000000001
1679518638226598908,0.793
1679518638234295366,0.387
1679518638241991824,-0.45
1679518638249688282,-0.712
1679518638257384740,-0.191
1679518638265081198,0.08700000000000001
1679518638272777656,-0.031
1679518638280474114,-0.016
1679518638288170572,0.058
1679518638295867030,0.029
1679518638303563488,0.033
1679518638311259946,0.083
1679518638318956404,0.08700000000000001
1679518638326652862,0.079
1679518638334349352,0.093,62,1075
1679518638342046228,0.108
1679518638349743104,0.112
1679518638357439980,0.125
1679518638365136856,0.147
1679518638372833732,0.156
1679518638380530608,0.15
1679518638388227484,0.152
1679518638395924360,0.17200000000000001
1679518638403621236,0.164
1679518638411318112,0.122
1679518638419014988,0.093
1679518638426711864,0.079
1679518638434408740,0.05
1679518638442105616,0.039
1679518638449802492,0.056
1679518638457499368,0.068
1679518638465196244,0.066
1679518638472893120,0.058
1679518638480589996,0.062
1679518638488286872,0.077
1679518638495983748,0.081
1679518638503680624,0.064
1679518638511377500,0.056
1679518638519074376,0.052000000000000005
1679518638526771252,0.056
1679518638534468128,0.079
1679518638542165004,0.12
1679518638549861880,0.15
1679518638557558756,0.137
1679518638565255632,0.10200000000000001
1679518638572952508,0.093
1679518638580649384,0.10200000000000001
1679518638588346260,0.07200000000000001
1679518638596043136,0.027
1679518638603740012,0.014
1679518638611436888,-0.004
1679518638619133764,-0.041
1679518638626830640,-0.047
1679518638634527516,-0.033
1679518638642224392,-0.035
1679518638649921268,-0.056
1679518638657618144,-0.066
1679518638665315020,-0.07
1679518638673011896,-0.097
1679518638680708772,-0.131
1679518638688405648,-0.129
1679518638696102524,-0.139
1679518638703799400,-0.212
1679518638711496276,-0.254
1679518638719193152,-0.227
1679518638726890028,-0.20400000000000001
1679518638734586904,-0.20800000000000002
1679518638742283780,-0.20600000000000002
1679518638749980656,-0.2
1679518638757677532,-0.187
1679518638765374408,-0.179
1679518638773071284,-0.17500000000000002
1679518638780768160,-0.154
1679518638788465036,-0.133
1679518638796161912,-0.139
1679518638803858788,-0.14100000000000001
1679518638811555664,-0.112
1679518638819252540,-0.089
1679518638826949416,-0.085
1679518638834646292,-0.083
1679518638842343168,-0.07
1679518638850040044,-0.058
1679518638857736920,-0.054
1679518638865433796,-0.043000000000000003
1679518638873130672,-0.016
1679518638880827548,-0.004
1679518638888524424,-0.012
1679518638896221336,-0.008
1679518638903917794,0.016
1679518638911614252,0.029
1679518638919310710,0.014
1679518638927007168,-0.002
1679518638934703626,-0.002
1679518638942400084,-0.014
1679518638950096542,-0.056
1679518638957793000,-0.07200000000000001
1679518638965489458,-0.045
1679518638973185916,-0.039
1679518638980882374,-0.058
1679518638988578832,-0.05
1679518638996275290,-0.016
1679518639003971748,-0.004
1679518639011668206,-0.002
1679518639019364664,0.01
1679518639027061122,0.016
1679518639034757580,0.012
1679518639042454038,0.016
1679518639050150496,0.039
1679518639057846954,0.062
1679518639065543412,0.064
1679518639073239870,0.054
1679518639080936328,0.066
1679518639088632786,0.097
1679518639096329244,0.11
1679518639104025702,0.116
1679518639111722160,0.14100000000000001
1679518639119418618,0.166
1679518639127115076,0.162
1679518639134811534,0.15
1679518639142507992,0.14300000000000002
1679518639150204450,0.139
1679518639157900908,0.127
1679518639165597366,0.097
1679518639173293824,0.077
1679518639180990282,0.08700000000000001
1679518639188686740,0.095
1679518639196383198,0.079
1679518639204079656,0.029
1679518639211776114,0.004
1679518639219472572,0.12
1679518639227169030,0.391
1679518639234865488,0.681
1679518639242561946,0.8160000000000001
1679518639250258404,0.443
1679518639257954862,-0.397
1679518639265651320,-0.7020000000000001
1679518639273347778,-0.216
1679518639281044236,0.07
1679518639288740694,-0.029
1679518639296437152,-0.016
1679518639304133610,0.06
1679518639311830068,0.039
1679518639319526526,0.043000000000000003
1679518639327222984,0.10400000000000001
1679518639334919442,0.135
1679518639342615900,0.12
1679518639350312358,0.106
1679518639358008816,0.106
1679518639365705274,0.112
1679518639373401732,0.125
1679518639381098190,0.164
1679518639388794648,0.20800000000000002
1679518639396491106,0.20600000000000002
1679518639404187564,0.17200000000000001
1679518639411884022,0.137
1679518639419580480,0.108
1679518639427276938,0.108
1679518639434973396,0.116
1679518639442669854,0.114
1679518639450366312,0.11800000000000001
1679518639458062802,0.122,62,1024
1679518639465759678,0.133
1679518639473456554,0.156
1679518639481153430,0.183
1679518639488850306,0.166
1679518639496547182,0.112
1679518639504244058,0.10200000000000001
1679518639511940934,0.116
1679518639519637810,0.10400000000000001
1679518639527334686,0.089
1679518639535031562,0.091
1679518639542728438,0.089
1679518639550425314,0.07200000000000001
1679518639558122190,0.081
1679518639565819066,0.116
1679518639573515942,0.116
1679518639581212818,0.1
1679518639588909694,0.11800000000000001
1679518639596606570,0.122
1679518639604303446,0.085
1679518639612000322,0.054
1679518639619697198,0.043000000000000003
1679518639627394074,0.018000000000000002
1679518639635090950,-0.052000000000000005
1679518639642787826,-0.112
1679518639650484702,-0.122
1679518639658181578,-0.137
1679518639665878454,-0.179
1679518639673575330,-0.193
1679518639681272206,-0.17500000000000002
1679518639688969082,-0.156
1679518639696665958,-0.154
1679518639704362834,-0.193
1679518639712059710,-0.247
1679518639719756586,-0.258
1679518639727453462,-0.245
1679518639735150338,-0.247
1679518639742847214,-0.233
1679518639750544090,-0.20800000000000002
1679518639758240966,-0.20800000000000002
1679518639765937842,-0.212
1679518639773634718,-0.193
1679518639781331594,-0.17200000000000001
1679518639789028470,-0.168
1679518639796725346,-0.156
1679518639804422222,-0.129
1679518639812119098,-0.125
1679518639819815974,-0.14100000000000001
1679518639827512850,-0.127
1679518639835209726,-0.08700000000000001
1679518639842906602,-0.066
1679518639850603478,-0.077
1679518639858300354,-0.08700000000000001
1679518639865997230,-0.07
1679518639873694106,-0.045
1679518639881390982,-0.039
1679518639889087858,-0.027
1679518639896784734,-0.01
1679518639904481610,-0.039
1679518639912178486,-0.081
1679518639919875362,-0.068
1679518639927572238,-0.033
1679518639935269114,-0.031
1679518639942965990,-0.037
1679518639950662866,-0.025
1679518639958359742,-0.01
1679518639966056618,0.0
1679518639973753494,0.01
1679518639981450370,0.027
1679518639989147246,0.037
1679518639996844122,0.031
1679518640004540998,0.035
1679518640012237874,0.062
1679518640019934786,0.079
1679518640027631662,0.075
1679518640035328538,0.079
1679518640043025414,0.08700000000000001
1679518640050722290,0.079
1679518640058419166,0.043000000000000003
1679518640066116042,0.018000000000000002
1679518640073812918,0.039
1679518640081509794,0.054
1679518640089206670,0.052000000000000005
1679518640096903546,0.07
1679518640104600422,0.10400000000000001
1679518640112297298,0.11800000000000001
1679518640119994174,0.10400000000000001
1679518640127691050,0.077
1679518640135387926,0.064
1679518640143084802,0.068
1679518640150781678,0.054
1679518640158478554,0.039
1679518640166175430,0.054
1679518640173872306,0.068
1679518640181569182,0.064
1679518640189266058,0.10200000000000001
1679518640196962934,0.245
1679518640204659810,0.504
1679518640212356686,0.758
1679518640220053562,0.843
1679518640227750438,0.466
1679518640235447314,-0.34700000000000003
1679518640243144190,-0.67
1679518640250841066,-0.2
1679518640258537942,0.122
1679518640266234818,0.025
1679518640273931694,-0.006
1679518640281628570,0.07
1679518640289325446,0.062
1679518640297022322,0.037
1679518640304719198,0.081
1679518640312416074,0.122
1679518640320112950,0.116
1679518640327809826,0.10400000000000001
1679518640335506702,0.114
1679518640343203578,0.135
1679518640350900454,0.156
1679518640358597330,0.16
1679518640366294206,0.154
1679518640373991082,0.164
1679518640381687958,0.191
1679518640389384834,0.20400000000000001
1679518640397081710,0.191
1679518640404778586,0.179
1679518640412475462,0.181
1679518640420172338,0.183
1679518640427869214,0.197
1679518640435566090,0.23500000000000001
1679518640443262966,0.252
1679518640450959842,0.245
1679518640458656718,0.247
1679518640466353594,0.254
1679518640474050470,0.245
1679518640481747346,0.23500000000000001
1679518640489444222,0.23900000000000002
1679518640497141098,0.23900000000000002
1679518640504837974,0.20600000000000002
1679518640512534850,0.183
1679518640520231726,0.225
1679518640527928602,0.266
1679518640535625478,0.252
1679518640543322354,0.23700000000000002
1679518640551019230,0.245
1679518640558716106,0.252
1679518640566412982,0.227
1679518640574109858,0.17
1679518640581806772,0.131,61,1016
1679518640589503648,0.12
1679518640597200524,0.08700000000000001
1679518640604897400,0.035
1679518640612594276,0.01
1679518640620291152,0.016
1679518640627988028,0.01
1679518640635684904,-0.012
1679518640643381780,-0.052000000000000005
1679518640651078656,-0.108
1679518640658775532,-0.16
1679518640666472408,-0.191
1679518640674169284,-0.183
1679518640681866160,-0.17500000000000002
1679518640689563036,-0.191
1679518640697259912,-0.191
1679518640704956788,-0.158
1679518640712653664,-0.139
1679518640720350540,-0.168
1679518640728047416,-0.202
1679518640735744292,-0.189
1679518640743441168,-0.177
1679518640751138044,-0.2
1679518640758834920,-0.21
1679518640766531796,-0.20800000000000002
1679518640774228672,-0.20800000000000002
1679518640781925548,-0.20800000000000002
1679518640789622424,-0.193
1679518640797319300,-0.168
1679518640805016176,-0.154
1679518640812713052,-0.145
1679518640820409928,-0.127
1679518640828106804,-0.11
1679518640835803680,-0.106
1679518640843500556,-0.097
1679518640851197432,-0.077
1679518640858894308,-0.052000000000000005
1679518640866591184,-0.045
1679518640874288060,-0.056
1679518640881984936,-0.052000000000000005
1679518640889681812,-0.056
1679518640897378688,-0.077
1679518640905075564,-0.066
1679518640912772440,-0.033
1679518640920469316,-0.018000000000000002
1679518640928166192,-0.014
1679518640935863068,0.0
1679518640943559944,0.022
1679518640951256820,0.037
1679518640958953696,0.037
1679518640966650572,0.027
1679518640974347448,0.039
1679518640982044324,0.066
1679518640989741200,0.066
1679518640997438076,0.068
1679518641005134952,0.093
1679518641012831828,0.097
1679518641020528704,0.08700000000000001
1679518641028225580,0.10400000000000001
1679518641035922456,0.131
1679518641043619332,0.139
1679518641051316208,0.131
1679518641059013084,0.135
1679518641066709960,0.16
1679518641074406836,0.181
1679518641082103712,0.179
1679518641089800588,0.16
1679518641097497464,0.14100000000000001
1679518641105194340,0.129
1679518641112891216,0.127
1679518641120588092,0.133
1679518641128284968,0.131
1679518641135981844,0.11
1679518641143678756,0.091,61,1017
1679518641151375214,0.095
1679518641159071672,0.152
1679518641166768130,0.318
1679518641174464588,0.593
1679518641182161046,0.858
1679518641189857504,0.879
1679518641197553962,0.27
1679518641205250420,-0.602
1679518641212946878,-0.616
1679518641220643336,-0.058
1679518641228339794,-0.004
1679518641236036252,-0.191
1679518641243732710,-0.116
1679518641251429168,-0.052000000000000005
1679518641259125626,-0.1
1679518641266822084,-0.079
1679518641274518542,-0.022
1679518641282215000,-0.02
1679518641289911458,-0.027
1679518641297607916,-0.004
1679518641305304374,0.022
1679518641313000832,0.037
1679518641320697290,0.047
1679518641328393748,0.062
1679518641336090206,0.075
1679518641343786664,0.081
1679518641351483122,0.089
1679518641359179580,0.11
1679518641366876038,0.139
1679518641374572496,0.15
1679518641382268954,0.122
1679518641389965412,0.106
1679518641397661870,0.131
1679518641405358328,0.14300000000000002
1679518641413054786,0.137
1679518641420751244,0.145
1679518641428447702,0.15
1679518641436144160,0.137
1679518641443840618,0.133
1679518641451537076,0.14300000000000002
1679518641459233534,0.15
1679518641466929992,0.135
1679518641474626450,0.114
1679518641482322908,0.122
1679518641490019366,0.154
1679518641497715824,0.177
1679518641505412282,0.193
1679518641513108740,0.212
1679518641520805198,0.193
1679518641528501656,0.154
1679518641536198114,0.14100000000000001
1679518641543894572,0.145
1679518641551591030,0.127
1679518641559287488,0.083
1679518641566983946,0.054
1679518641574680404,0.037
1679518641582376862,0.014
1679518641590073320,0.004
1679518641597769778,0.008
1679518641605466236,0.01
1679518641613162694,-0.002
1679518641620859152,-0.031
1679518641628555610,-0.06
1679518641636252068,-0.07200000000000001
1679518641643948526,-0.077
1679518641651644984,-0.093
1679518641659341442,-0.108
1679518641667037900,-0.1
1679518641674734358,-0.091
1679518641682430816,-0.093
1679518641690127274,-0.08700000000000001
1679518641697823732,-0.077
1679518641705520222,-0.085
1679518641713217098,-0.093
1679518641720913974,-0.08700000000000001
1679518641728610850,-0.114
1679518641736307726,-0.17500000000000002
1679518641744004602,-0.195
1679518641751701478,-0.181
1679518641759398354,-0.185
1679518641767095230,-0.218
1679518641774792106,-0.245
1679518641782488982,-0.229
1679518641790185858,-0.20400000000000001
1679518641797882734,-0.216
1679518641805579610,-0.216
1679518641813276486,-0.183
1679518641820973362,-0.158
1679518641828670238,-0.156
1679518641836367114,-0.145
1679518641844063990,-0.127
1679518641851760866,-0.114
1679518641859457742,-0.10400000000000001
1679518641867154618,-0.097
1679518641874851494,-0.11
1679518641882548370,-0.127
1679518641890245246,-0.131
1679518641897942122,-0.116
1679518641905638998,-0.093
1679518641913335874,-0.075
1679518641921032750,-0.066
1679518641928729626,-0.058
1679518641936426502,-0.045
1679518641944123378,-0.035
1679518641951820254,-0.029
1679518641959517130,-0.01
1679518641967214006,0.012
1679518641974910882,0.02
1679518641982607758,0.016
1679518641990304634,0.029
1679518641998001510,0.054
1679518642005698386,0.058
1679518642013395262,0.058
1679518642021092138,0.07
1679518642028789014,0.079
1679518642036485890,0.077
1679518642044182766,0.085
1679518642051879642,0.108
1679518642059576518,0.127
1679518642067273394,0.135
1679518642074970270,0.14100000000000001
1679518642082667146,0.156
1679518642090364022,0.179
1679518642098060898,0.185
1679518642105757774,0.17
1679518642113454650,0.139
1679518642121151526,0.093
1679518642128848402,0.056
1679518642136545278,0.056
1679518642144242154,0.075
1679518642151939030,0.083
1679518642159635906,0.081
1679518642167332782,0.08700000000000001
1679518642175029658,0.156
1679518642182726534,0.337
1679518642190423410,0.61
1679518642198120286,0.866
1679518642205817162,0.883
1679518642213514038,0.304
1679518642221210914,-0.5
1679518642228907790,-0.51
1679518642236604666,-0.008
1679518642244301542,0.064
1679518642251998418,-0.07200000000000001
1679518642259695294,-0.016
1679518642267392206,0.039,61,978
1679518642275088664,0.01
1679518642282785122,0.018000000000000002
1679518642290481580,0.05
1679518642298178038,0.05
1679518642305874496,0.01
1679518642313570954,-0.033
1679518642321267412,-0.027
1679518642328963870,0.006
1679518642336660328,0.012
1679518642344356786,0.01
1679518642352053244,0.029
1679518642359749702,0.039
1679518642367446160,0.029
1679518642375142618,0.025
1679518642382839076,0.052000000000000005
1679518642390535534,0.077
1679518642398231992,0.081
1679518642405928450,0.106
1679518642413624908,0.133
1679518642421321366,0.116
1679518642429017824,0.10400000000000001
1679518642436714282,0.135
1679518642444410740,0.154
1679518642452107198,0.158
1679518642459803656,0.168
1679518642467500114,0.168
1679518642475196572,0.166
1679518642482893030,0.162
1679518642490589488,0.14100000000000001
1679518642498285946,0.129
1679518642505982404,0.15
1679518642513678862,0.187
1679518642521375320,0.214
1679518642529071778,0.222
1679518642536768236,0.218
1679518642544464694,0.202
1679518642552161152,0.17500000000000002
1679518642559857610,0.152
1679518642567554068,0.106
1679518642575250526,0.062
1679518642582946984,0.052000000000000005
1679518642590643442,0.041
1679518642598339900,0.008
1679518642606036358,-0.018000000000000002
1679518642613732816,-0.033
1679518642621429274,-0.033
1679518642629125732,-0.022
1679518642636822190,-0.033
1679518642644518648,-0.056
1679518642652215106,-0.043000000000000003
1679518642659911564,-0.022
1679518642667608022,-0.052000000000000005
1679518642675304480,-0.106
1679518642683000938,-0.11
1679518642690697396,-0.077
1679518642698393854,-0.081
1679518642706090312,-0.097
1679518642713786770,-0.085
1679518642721483228,-0.083
1679518642729179686,-0.11
1679518642736876144,-0.154
1679518642744572602,-0.193
1679518642752269060,-0.197
1679518642759965518,-0.185
1679518642767661976,-0.185
1679518642775358434,-0.181
1679518642783054892,-0.162
1679518642790751350,-0.15
1679518642798447808,-0.127
1679518642806144266,-0.093
1679518642813840724,-0.083
1679518642821537182,-0.077
1679518642829233672,-0.06
1679518642836930130,-0.058
1679518642844626588,-0.066
1679518642852323046,-0.068
1679518642860019504,-0.089
1679518642867715962,-0.108
1679518642875412420,-0.116
1679518642883108878,-0.14300000000000002
1679518642890805336,-0.16
1679518642898501794,-0.14300000000000002
1679518642906198252,-0.135
1679518642913894710,-0.133
1679518642921591168,-0.108
1679518642929287626,-0.081
1679518642936984084,-0.077
1679518642944680542,-0.077
1679518642952377000,-0.066
1679518642960073458,-0.05
1679518642967769916,-0.037
1679518642975466374,-0.025
1679518642983162832,-0.002
1679518642990859290,0.016
1679518642998555748,0.01
1679518643006252206,0.006
1679518643013948664,0.031
1679518643021645122,0.058
1679518643029341580,0.068
1679518643037038038,0.07
1679518643044734496,0.079
1679518643052430954,0.10200000000000001
1679518643060127412,0.11800000000000001
1679518643067823870,0.137
1679518643075520328,0.17
1679518643083216786,0.177
1679518643090913244,0.127
1679518643098609702,0.08700000000000001
1679518643106306160,0.077
1679518643114002618,0.06
1679518643121699076,0.05
1679518643129395534,0.06
1679518643137091992,0.07
1679518643144788450,0.07200000000000001
1679518643152484908,0.11
1679518643160181366,0.256
1679518643167877824,0.539
1679518643175574282,0.835
1679518643183270740,0.935
1679518643190967198,0.508
1679518643198663656,-0.335
1679518643206360114,-0.604
1679518643214056572,-0.108
1679518643221753030,0.179
1679518643229449488,0.075
1679518643237145946,0.07200000000000001
1679518643244842404,0.116
1679518643252538862,0.05
1679518643260235320,0.029
1679518643267931778,0.066
1679518643275628236,0.058
1679518643283324694,0.058
1679518643291021152,0.093
1679518643298717610,0.1
1679518643306414068,0.097
1679518643314110526,0.122
1679518643321806984,0.135
1679518643329503442,0.129
1679518643337199900,0.14100000000000001
1679518643344896358,0.162
1679518643352592816,0.14300000000000002
1679518643360289274,0.11
1679518643367985732,0.112
1679518643375682190,0.135
1679518643383378648,0.14300000000000002
1679518643391075138,0.145,61,968
1679518643398771666,0.164
1679518643406468194,0.183
1679518643414164722,0.156
1679518643421861250,0.1
1679518643429557778,0.083
1679518643437254306,0.10400000000000001
1679518643444950834,0.10200000000000001
1679518643452647362,0.079
1679518643460343890,0.068
1679518643468040418,0.079
1679518643475736946,0.091
1679518643483433474,0.10400000000000001
1679518643491130002,0.139
1679518643498826530,0.17500000000000002
1679518643506523058,0.168
1679518643514219586,0.14100000000000001
1679518643521916114,0.139
1679518643529612642,0.147
1679518643537309170,0.129
1679518643545005698,0.095
1679518643552702226,0.07
1679518643560398754,0.056
1679518643568095282,0.031
1679518643575791810,-0.002
1679518643583488338,-0.002
1679518643591184866,0.0
1679518643598881394,-0.037
1679518643606577922,-0.062
1679518643614274450,-0.045
1679518643621970978,-0.035
1679518643629667506,-0.045
1679518643637364034,-0.047
1679518643645060562,-0.052000000000000005
1679518643652757090,-0.064
1679518643660453618,-0.066
1679518643668150146,-0.056
1679518643675846674,-0.041
1679518643683543202,-0.041
1679518643691239730,-0.054
1679518643698936258,-0.056
1679518643706632786,-0.035
1679518643714329314,-0.027
1679518643722025842,-0.033
1679518643729722370,-0.031
1679518643737418898,-0.02
1679518643745115426,-0.018000000000000002
1679518643752811954,-0.043000000000000003
1679518643760508482,-0.085
1679518643768205010,-0.089
1679518643775901538,-0.079
1679518643783598066,-0.091
1679518643791294594,-0.08700000000000001
1679518643798991122,-0.06
1679518643806687650,-0.052000000000000005
1679518643814384178,-0.047
1679518643822080706,-0.031
1679518643829777234,-0.014
1679518643837473762,-0.01
1679518643845170290,-0.022
1679518643852866818,-0.035
1679518643860563346,-0.027
1679518643868259874,-0.022
1679518643875956402,-0.033
1679518643883652930,-0.025
1679518643891349458,-0.002
1679518643899045986,0.004
1679518643906742514,0.014
1679518643914439042,0.033
1679518643922135570,0.035
1679518643929832098,0.027
1679518643937528626,0.041
1679518643945225154,0.066
1679518643952921692,0.079
1679518643960618220,0.075
1679518643968314748,0.07200000000000001
1679518643976011276,0.083
1679518643983707804,0.095
1679518643991404332,0.10200000000000001
1679518643999100860,0.112
1679518644006797388,0.122
1679518644014493916,0.097
1679518644022190444,0.047
1679518644029886972,0.047
1679518644037583500,0.089
1679518644045280028,0.097
1679518644052976556,0.091
1679518644060673084,0.097
1679518644068369612,0.085
1679518644076066140,0.056
1679518644083762668,0.041
1679518644091459196,0.029
1679518644099155724,0.008
1679518644106852252,-0.004
1679518644114548780,0.0
1679518644122245308,0.018000000000000002
1679518644129941836,0.05
1679518644137638364,0.133
1679518644145334892,0.339
1679518644153031420,0.631
1679518644160727948,0.86
1679518644168424476,0.76
1679518644176121004,0.064
1679518644183817532,-0.614
1679518644191514060,-0.397
1679518644199210588,0.10400000000000001
1679518644206907116,0.10400000000000001
1679518644214603644,0.012
1679518644222300172,0.108
1679518644229996700,0.131
1679518644237693228,0.091
1679518644245389756,0.116
1679518644253086284,0.137
1679518644260782812,0.1
1679518644268479340,0.058
1679518644276175868,0.066
1679518644283872396,0.075
1679518644291568924,0.05
1679518644299265452,0.047
1679518644306961980,0.081
1679518644314658508,0.097
1679518644322355036,0.095
1679518644330051564,0.1
1679518644337748092,0.085
1679518644345444620,0.056
1679518644353141148,0.058
1679518644360837676,0.085
1679518644368534204,0.106
1679518644376230732,0.108
1679518644383927260,0.1
1679518644391623788,0.10400000000000001
1679518644399320316,0.12
1679518644407016844,0.12
1679518644414713372,0.11800000000000001
1679518644422409900,0.125
1679518644430106428,0.11800000000000001
1679518644437802956,0.1
1679518644445499484,0.091
1679518644453196012,0.10200000000000001
1679518644460892540,0.116
1679518644468589068,0.116
1679518644476285596,0.12
1679518644483982124,0.147
1679518644491678652,0.16
1679518644499375180,0.137
1679518644507071708,0.11800000000000001
1679518644514768244,0.122,61,1016
1679518644522464981,0.1
1679518644530161718,0.056
1679518644537858455,0.035
1679518644545555192,0.033
1679518644553251929,0.012
1679518644560948666,-0.02
1679518644568645403,-0.035
1679518644576342140,-0.045
1679518644584038877,-0.10200000000000001
1679518644591735614,-0.17200000000000001
1679518644599432351,-0.181
1679518644607129088,-0.16
1679518644614825825,-0.177
1679518644622522562,-0.195
1679518644630219299,-0.17500000000000002
1679518644637916036,-0.156
1679518644645612773,-0.162
1679518644653309510,-0.17200000000000001
1679518644661006247,-0.168
1679518644668702984,-0.158
1679518644676399721,-0.156
1679518644684096458,-0.154
1679518644691793195,-0.133
1679518644699489932,-0.12
1679518644707186669,-0.129
1679518644714883406,-0.129
1679518644722580143,-0.10400000000000001
1679518644730276880,-0.083
1679518644737973617,-0.079
1679518644745670354,-0.079
1679518644753367091,-0.07
1679518644761063828,-0.06
1679518644768760565,-0.083
1679518644776457302,-0.125
1679518644784154039,-0.122
1679518644791850776,-0.1
1679518644799547513,-0.112
1679518644807244250,-0.114
1679518644814940987,-0.079
1679518644822637724,-0.062
1679518644830334461,-0.081
1679518644838031198,-0.091
1679518644845727935,-0.077
1679518644853424672,-0.068
1679518644861121409,-0.066
1679518644868818146,-0.047
1679518644876514883,-0.022
1679518644884211620,-0.016
1679518644891908357,-0.02
1679518644899605094,-0.012
1679518644907301831,0.012
1679518644914998568,0.025
1679518644922695305,0.029
1679518644930392042,0.039
1679518644938088779,0.054
1679518644945785516,0.054
1679518644953482253,0.056
1679518644961178990,0.077
1679518644968875727,0.10200000000000001
1679518644976572464,0.108
1679518644984269201,0.097
1679518644991965938,0.114
1679518644999662675,0.154
1679518645007359412,0.166
1679518645015056149,0.17
1679518645022752886,0.187
1679518645030449623,0.166
1679518645038146360,0.116
1679518645045843097,0.114
1679518645053539834,0.145
1679518645061236571,0.156
1679518645068933308,0.14300000000000002
1679518645076630056,0.11800000000000001,61,979
1679518645084326514,0.10400000000000001
1679518645092022972,0.129
1679518645099719430,0.212
1679518645107415888,0.41200000000000003
1679518645115112346,0.712
1679518645122808804,0.929
1679518645130505262,0.754
1679518645138201720,-0.008
1679518645145898178,-0.668
1679518645153594636,-0.429
1679518645161291094,0.06
1679518645168987552,0.056
1679518645176684010,-0.033
1679518645184380468,0.054
1679518645192076926,0.079
1679518645199773384,0.052000000000000005
1679518645207469842,0.081
1679518645215166300,0.091
1679518645222862758,0.07200000000000001
1679518645230559216,0.089
1679518645238255674,0.127
1679518645245952132,0.133
1679518645253648590,0.129
1679518645261345048,0.137
1679518645269041506,0.11800000000000001
1679518645276737964,0.06
1679518645284434422,0.029
1679518645292130880,0.06
1679518645299827338,0.083
1679518645307523796,0.066
1679518645315220254,0.045
1679518645322916712,0.037
1679518645330613170,0.033
1679518645338309628,0.035
1679518645346006086,0.043000000000000003
1679518645353702544,0.047
1679518645361399002,0.043000000000000003
1679518645369095460,0.043000000000000003
1679518645376791918,0.06
1679518645384488376,0.079
1679518645392184834,0.07200000000000001
1679518645399881292,0.047
1679518645407577750,0.043000000000000003
1679518645415274208,0.075
1679518645422970666,0.106
1679518645430667124,0.11800000000000001
1679518645438363582,0.139
1679518645446060040,0.17500000000000002
1679518645453756498,0.177
1679518645461452956,0.147
1679518645469149414,0.14300000000000002
1679518645476845872,0.154
1679518645484542330,0.127
1679518645492238788,0.075
1679518645499935246,0.05
1679518645507631704,0.047
1679518645515328162,0.016
1679518645523024620,-0.014
1679518645530721078,-0.01
1679518645538417536,-0.01
1679518645546113994,-0.033
1679518645553810452,-0.035
1679518645561506910,-0.025
1679518645569203368,-0.047
1679518645576899826,-0.08700000000000001
1679518645584596284,-0.10400000000000001
1679518645592292742,-0.097
1679518645599989200,-0.08700000000000001
1679518645607685658,-0.08700000000000001
1679518645615382116,-0.085
1679518645623078574,-0.077
1679518645630775032,-0.077
1679518645638471522,-0.091
1679518645646167980,-0.097
1679518645653864438,-0.08700000000000001
1679518645661560896,-0.075
1679518645669257354,-0.08700000000000001
1679518645676953812,-0.10200000000000001
1679518645684650270,-0.08700000000000001
1679518645692346728,-0.077
1679518645700043186,-0.116
1679518645707739644,-0.145
1679518645715436102,-0.127
1679518645723132560,-0.133
1679518645730829018,-0.16
1679518645738525476,-0.139
1679518645746221934,-0.093
1679518645753918392,-0.085
1679518645761614850,-0.10400000000000001
1679518645769311308,-0.116
1679518645777007766,-0.137
1679518645784704224,-0.177
1679518645792400682,-0.185
1679518645800097140,-0.16
1679518645807793598,-0.158
1679518645815490056,-0.197
1679518645823186514,-0.225
1679518645830882972,-0.2
1679518645838579430,-0.17
1679518645846275888,-0.166
1679518645853972346,-0.16
1679518645861668804,-0.14300000000000002
1679518645869365262,-0.127
1679518645877061720,-0.116
1679518645884758178,-0.1
1679518645892454636,-0.075
1679518645900151094,-0.056
1679518645907847552,-0.052000000000000005
1679518645915544010,-0.039
1679518645923240468,-0.02
1679518645930936926,0.0
1679518645938633384,0.027
1679518645946329842,0.045
1679518645954026300,0.06
1679518645961722758,0.077
1679518645969419216,0.066
1679518645977115674,0.037
1679518645984812132,0.043000000000000003
1679518645992508590,0.064
1679518646000205048,0.058
1679518646007901506,0.054
1679518646015597964,0.077
1679518646023294422,0.097
1679518646030990880,0.112
1679518646038687338,0.191
1679518646046383796,0.406
1679518646054080254,0.71
1679518646061776712,0.9430000000000001
1679518646069473170,0.8140000000000001
1679518646077169628,0.093
1679518646084866086,-0.602
1679518646092562544,-0.435
1679518646100259002,0.068
1679518646107955460,0.131
1679518646115651918,0.047
1679518646123348376,0.112
1679518646131044834,0.147
1679518646138741292,0.11800000000000001
1679518646146437750,0.127
1679518646154134208,0.15
1679518646161830666,0.164
1679518646169527124,0.183
1679518646177223582,0.187
1679518646184920040,0.179
1679518646192616498,0.189
1679518646200312988,0.212,61,981
1679518646208009446,0.22
1679518646215705904,0.225
1679518646223402362,0.23700000000000002
1679518646231098820,0.233
1679518646238795278,0.189
1679518646246491736,0.156
1679518646254188194,0.17500000000000002
1679518646261884652,0.195
1679518646269581110,0.179
1679518646277277568,0.14100000000000001
1679518646284974026,0.089
1679518646292670484,0.064
1679518646300366942,0.07200000000000001
1679518646308063400,0.054
1679518646315759858,0.022
1679518646323456316,0.012
1679518646331152774,0.004
1679518646338849232,0.002
1679518646346545690,0.018000000000000002
1679518646354242148,0.029
1679518646361938606,0.014
1679518646369635064,0.02
1679518646377331522,0.062
1679518646385027980,0.095
1679518646392724438,0.089
1679518646400420896,0.07200000000000001
1679518646408117354,0.064
1679518646415813812,0.039
1679518646423510270,0.014
1679518646431206728,0.002
1679518646438903186,-0.008
1679518646446599644,-0.027
1679518646454296102,-0.054
1679518646461992560,-0.07
1679518646469689018,-0.064
1679518646477385476,-0.066
1679518646485081934,-0.07
1679518646492778392,-0.054
1679518646500474850,-0.041
1679518646508171308,-0.058
1679518646515867766,-0.068
1679518646523564224,-0.05
1679518646531260682,-0.037
1679518646538957140,-0.039
1679518646546653598,-0.041
1679518646554350056,-0.06
1679518646562046514,-0.085
1679518646569742972,-0.08700000000000001
1679518646577439430,-0.075
1679518646585135888,-0.064
1679518646592832346,-0.058
1679518646600528804,-0.062
1679518646608225262,-0.058
1679518646615921720,-0.035
1679518646623618178,-0.025
1679518646631314636,-0.025
1679518646639011094,-0.022
1679518646646707552,-0.018000000000000002
1679518646654404010,-0.022
1679518646662100468,-0.016
1679518646669796926,0.0
1679518646677493384,0.02
1679518646685189842,0.022
1679518646692886300,0.008
1679518646700582758,0.016
1679518646708279216,0.037
1679518646715975674,0.041
1679518646723672132,0.043000000000000003
1679518646731368590,0.06
1679518646739065048,0.066
1679518646746761506,0.058
1679518646754457964,0.062
1679518646762154454,0.083
1679518646769851330,0.106
1679518646777548206,0.093
1679518646785245082,0.039
1679518646792941958,-0.002
1679518646800638834,-0.031
1679518646808335710,-0.091
1679518646816032586,-0.135
1679518646823729462,-0.11800000000000001
1679518646831426338,-0.106
1679518646839123214,-0.11800000000000001
1679518646846820090,-0.114
1679518646854516966,-0.091
1679518646862213842,-0.07200000000000001
1679518646869910718,-0.068
1679518646877607594,-0.066
1679518646885304470,-0.045
1679518646893001346,-0.022
1679518646900698222,-0.008
1679518646908395098,0.022
1679518646916091974,0.06
1679518646923788850,0.066
1679518646931485726,0.066
1679518646939182602,0.07
1679518646946879478,0.062
1679518646954576354,0.054
1679518646962273230,0.054
1679518646969970106,0.056
1679518646977666982,0.064
1679518646985363858,0.079
1679518646993060734,0.08700000000000001
1679518647000757610,0.106
1679518647008454486,0.168
1679518647016151362,0.32
1679518647023848238,0.583
1679518647031545114,0.862
1679518647039241990,0.933
1679518647046938866,0.41000000000000003
1679518647054635742,-0.462
1679518647062332618,-0.583
1679518647070029494,-0.01
1679518647077726370,0.168
1679518647085423246,0.016
1679518647093120122,0.075
1679518647100816998,0.158
1679518647108513874,0.10400000000000001
1679518647116210750,0.089
1679518647123907626,0.139
1679518647131604502,0.154
1679518647139301378,0.154
1679518647146998254,0.168
1679518647154695130,0.179
1679518647162392006,0.181
1679518647170088882,0.185
1679518647177785758,0.197
1679518647185482634,0.218
1679518647193179510,0.227
1679518647200876386,0.222
1679518647208573262,0.222
1679518647216270138,0.243
1679518647223967014,0.26
1679518647231663890,0.262
1679518647239360766,0.266
1679518647247057642,0.27
1679518647254754518,0.264
1679518647262451394,0.26
1679518647270148270,0.27
1679518647277845146,0.266
1679518647285542022,0.20400000000000001
1679518647293238898,0.11
1679518647300935774,0.07200000000000001
1679518647308632650,0.085
1679518647316329526,0.075
1679518647324026440,0.056,61,962
1679518647331722898,0.066
1679518647339419356,0.077
1679518647347115814,0.081
1679518647354812272,0.106
1679518647362508730,0.135
1679518647370205188,0.129
1679518647377901646,0.091
1679518647385598104,0.062
1679518647393294562,0.058
1679518647400991020,0.033
1679518647408687478,-0.035
1679518647416383936,-0.089
1679518647424080394,-0.10200000000000001
1679518647431776852,-0.127
1679518647439473310,-0.15
1679518647447169768,-0.14100000000000001
1679518647454866226,-0.129
1679518647462562684,-0.125
1679518647470259142,-0.131
1679518647477955600,-0.135
1679518647485652058,-0.127
1679518647493348516,-0.112
1679518647501044974,-0.112
1679518647508741432,-0.106
1679518647516437890,-0.089
1679518647524134348,-0.093
1679518647531830806,-0.11800000000000001
1679518647539527264,-0.14100000000000001
1679518647547223722,-0.15
1679518647554920180,-0.14300000000000002
1679518647562616638,-0.14100000000000001
1679518647570313096,-0.14300000000000002
1679518647578009554,-0.137
1679518647585706012,-0.125
1679518647593402470,-0.114
1679518647601098928,-0.1
1679518647608795386,-0.08700000000000001
1679518647616491844,-0.089
1679518647624188302,-0.091
1679518647631884760,-0.068
1679518647639581218,-0.045
1679518647647277676,-0.047
1679518647654974134,-0.054
1679518647662670592,-0.045
1679518647670367050,-0.035
1679518647678063508,-0.029
1679518647685759966,-0.018000000000000002
1679518647693456424,0.002
1679518647701152882,0.016
1679518647708849340,0.01
1679518647716545798,0.008
1679518647724242256,0.029
1679518647731938714,0.047
1679518647739635172,0.052000000000000005
1679518647747331630,0.054
1679518647755028088,0.062
1679518647762724546,0.068
1679518647770421004,0.07
1679518647778117462,0.07
1679518647785813920,0.039
1679518647793510378,-0.031
1679518647801206836,-0.07200000000000001
1679518647808903294,-0.054
1679518647816599752,-0.033
1679518647824296210,-0.033
1679518647831992668,-0.029
1679518647839689126,-0.016
1679518647847385584,-0.006
1679518647855082042,-0.002
1679518647862778500,0.002
1679518647870474958,0.022
1679518647878171416,0.05
1679518647885867906,0.056
1679518647893564364,0.05
1679518647901260822,0.062
1679518647908957280,0.10200000000000001
1679518647916653738,0.122
1679518647924350196,0.127
1679518647932046654,0.145
1679518647939743112,0.135
1679518647947439570,0.054
1679518647955136028,-0.012
1679518647962832486,0.006
1679518647970528944,0.035
1679518647978225402,0.018000000000000002
1679518647985921860,0.006
1679518647993618318,0.027
1679518648001314776,0.05
1679518648009011234,0.085
1679518648016707692,0.229
1679518648024404150,0.506
1679518648032100608,0.752
1679518648039797066,0.804
1679518648047493524,0.395
1679518648055189982,-0.41600000000000004
1679518648062886440,-0.664
1679518648070582898,-0.16
1679518648078279356,0.10200000000000001
1679518648085975814,-0.018000000000000002
1679518648093672272,-0.002
1679518648101368730,0.077
1679518648109065188,0.06
1679518648116761646,0.068
1679518648124458104,0.093
1679518648132154562,0.079
1679518648139851020,0.08700000000000001
1679518648147547478,0.131
1679518648155243936,0.139
1679518648162940394,0.129
1679518648170636852,0.139
1679518648178333310,0.156
1679518648186029768,0.166
1679518648193726226,0.17200000000000001
1679518648201422684,0.191
1679518648209119142,0.202
1679518648216815600,0.189
1679518648224512058,0.185
1679518648232208516,0.21
1679518648239904974,0.23500000000000001
1679518648247601432,0.233
1679518648255297890,0.225
1679518648262994348,0.225
1679518648270690806,0.22
1679518648278387264,0.2
1679518648286083722,0.177
1679518648293780180,0.14100000000000001
1679518648301476638,0.075
1679518648309173096,0.018000000000000002
1679518648316869554,0.016
1679518648324566012,0.02
1679518648332262470,0.016
1679518648339958928,0.027
1679518648347655386,0.043000000000000003
1679518648355351844,0.058
1679518648363048302,0.068
1679518648370744760,0.056
1679518648378441218,0.035
1679518648386137676,0.035
1679518648393834134,0.027
1679518648401530592,-0.016
1679518648409227050,-0.05
1679518648416923508,-0.045
1679518648424619966,-0.054
1679518648432316424,-0.083
1679518648440012882,-0.083
1679518648447709372,-0.075,61,939
1679518648455406248,-0.085
1679518648463103124,-0.089
1679518648470800000,-0.079
1679518648478496876,-0.066
1679518648486193752,-0.075
1679518648493890628,-0.097
1679518648501587504,-0.097
1679518648509284380,-0.07
1679518648516981256,-0.064
1679518648524678132,-0.085
1679518648532375008,-0.1
1679518648540071884,-0.112
1679518648547768760,-0.16
1679518648555465636,-0.20600000000000002
1679518648563162512,-0.187
1679518648570859388,-0.16
1679518648578556264,-0.181
1679518648586253140,-0.193
1679518648593950016,-0.166
1679518648601646892,-0.15
1679518648609343768,-0.147
1679518648617040644,-0.127
1679518648624737520,-0.10400000000000001
1679518648632434396,-0.10400000000000001
1679518648640131272,-0.11800000000000001
1679518648647828148,-0.11800000000000001
1679518648655525024,-0.093
1679518648663221900,-0.07
1679518648670918776,-0.075
1679518648678615652,-0.083
1679518648686312528,-0.068
1679518648694009404,-0.052000000000000005
1679518648701706280,-0.045
1679518648709403156,-0.029
1679518648717100032,-0.008
1679518648724796908,-0.006
1679518648732493784,-0.006
1679518648740190660,0.008
1679518648747887536,0.025
1679518648755584412,0.033
1679518648763281288,0.027
1679518648770978164,0.0
1679518648778675040,-0.02
1679518648786371916,-0.012
1679518648794068792,-0.02
1679518648801765668,-0.068
1679518648809462544,-0.11
1679518648817159420,-0.12
1679518648824856296,-0.112
1679518648832553172,-0.089
1679518648840250048,-0.068
1679518648847946924,-0.066
1679518648855643800,-0.066
1679518648863340676,-0.05
1679518648871037552,-0.029
1679518648878734428,-0.016
1679518648886431304,0.0
1679518648894128180,0.035
1679518648901825056,0.06
1679518648909521932,0.058
1679518648917218808,0.066
1679518648924915684,0.081
1679518648932612560,0.064
1679518648940309436,0.047
1679518648948006312,0.064
1679518648955703188,0.081
1679518648963400064,0.077
1679518648971096940,0.07200000000000001
1679518648978793816,0.085
1679518648986490692,0.116
1679518648994187568,0.187
1679518649001884444,0.358
1679518649009581356,0.647
1679518649017277814,0.904
1679518649024974272,0.8250000000000001
1679518649032670730,0.14100000000000001
1679518649040367188,-0.608
1679518649048063646,-0.525
1679518649055760104,-0.047
1679518649063456562,-0.002
1679518649071153020,-0.095
1679518649078849478,-0.016
1679518649086545936,0.014
1679518649094242394,-0.029
1679518649101938852,-0.008
1679518649109635310,0.033
1679518649117331768,0.041
1679518649125028226,0.058
1679518649132724684,0.081
1679518649140421142,0.079
1679518649148117600,0.077
1679518649155814058,0.10200000000000001
1679518649163510516,0.127
1679518649171206974,0.145
1679518649178903432,0.152
1679518649186599890,0.147
1679518649194296348,0.158
1679518649201992806,0.181
1679518649209689264,0.191
1679518649217385722,0.202
1679518649225082180,0.22
1679518649232778638,0.22
1679518649240475096,0.21
1679518649248171554,0.216
1679518649255868012,0.231
1679518649263564470,0.20600000000000002
1679518649271260928,0.158
1679518649278957386,0.14100000000000001
1679518649286653844,0.145
1679518649294350302,0.133
1679518649302046760,0.108
1679518649309743218,0.062
1679518649317439676,0.012
1679518649325136134,-0.004
1679518649332832592,0.016
1679518649340529050,0.052000000000000005
1679518649348225508,0.07200000000000001
1679518649355921966,0.056
1679518649363618424,0.025
1679518649371314882,0.008
1679518649379011340,0.0
1679518649386707798,-0.018000000000000002
1679518649394404256,-0.039
1679518649402100714,-0.041
1679518649409797172,-0.052000000000000005
1679518649417493630,-0.08700000000000001
1679518649425190088,-0.097
1679518649432886546,-0.077
1679518649440583004,-0.06
1679518649448279462,-0.064
1679518649455975920,-0.07
1679518649463672378,-0.068
1679518649471368836,-0.064
1679518649479065294,-0.06
1679518649486761752,-0.052000000000000005
1679518649494458210,-0.037
1679518649502154668,-0.039
1679518649509851126,-0.07
1679518649517547584,-0.089
1679518649525244042,-0.068
1679518649532940500,-0.052000000000000005
1679518649540636958,-0.06
1679518649548333416,-0.06
1679518649556029874,-0.045
1679518649563726332,-0.045
1679518649571422822,-0.047,61,973
1679518649579119280,-0.027
1679518649586815738,0.0
1679518649594512196,0.002
1679518649602208654,-0.014
1679518649609905112,-0.012
1679518649617601570,0.008
1679518649625298028,-0.006
1679518649632994486,-0.05
1679518649640690944,-0.062
1679518649648387402,-0.054
1679518649656083860,-0.06
1679518649663780318,-0.064
1679518649671476776,-0.041
1679518649679173234,-0.018000000000000002
1679518649686869692,-0.018000000000000002
1679518649694566150,-0.033
1679518649702262608,-0.025
1679518649709959066,0.002
1679518649717655524,0.012
1679518649725351982,0.018000000000000002
1679518649733048440,0.033
1679518649740744898,0.039
1679518649748441356,0.035
1679518649756137814,0.029
1679518649763834272,0.022
1679518649771530730,0.031
1679518649779227188,0.033
1679518649786923646,0.022
1679518649794620104,0.037
1679518649802316562,0.064
1679518649810013020,0.052000000000000005
1679518649817709478,0.004
1679518649825405936,-0.01
1679518649833102394,-0.002
1679518649840798852,-0.004
1679518649848495310,0.016
1679518649856191768,0.062
1679518649863888226,0.083
1679518649871584684,0.083
1679518649879281142,0.07200000000000001
1679518649886977600,0.052000000000000005
1679518649894674058,0.039
1679518649902370516,0.047
1679518649910066974,0.064
1679518649917763432,0.075
1679518649925459890,0.07200000000000001
1679518649933156348,0.066
1679518649940852806,0.08700000000000001
1679518649948549264,0.15
1679518649956245722,0.304
1679518649963942180,0.5750000000000001
1679518649971638638,0.852
1679518649979335096,0.9430000000000001
1679518649987031554,0.489
1679518649994728012,-0.381
1679518650002424470,-0.608
1679518650010120928,-0.08700000000000001
1679518650017817386,0.137
1679518650025513844,-0.008
1679518650033210302,0.016
1679518650040906760,0.11
1679518650048603218,0.083
1679518650056299676,0.07200000000000001
1679518650063996134,0.108
1679518650071692592,0.114
1679518650079389050,0.11
1679518650087085508,0.131
1679518650094781966,0.156
1679518650102478424,0.164
1679518650110174882,0.16
1679518650117871340,0.162
1679518650125567798,0.183
1679518650133264288,0.202,61,1001
1679518650140960816,0.21
1679518650148657344,0.216
1679518650156353872,0.218
1679518650164050400,0.2
1679518650171746928,0.166
1679518650179443456,0.152
1679518650187139984,0.17200000000000001
1679518650194836512,0.179
1679518650202533040,0.156
1679518650210229568,0.15
1679518650217926096,0.166
1679518650225622624,0.17
1679518650233319152,0.158
1679518650241015680,0.14300000000000002
1679518650248712208,0.106
1679518650256408736,0.062
1679518650264105264,0.054
1679518650271801792,0.066
1679518650279498320,0.081
1679518650287194848,0.089
1679518650294891376,0.093
1679518650302587904,0.1
1679518650310284432,0.097
1679518650317980960,0.06
1679518650325677488,-0.002
1679518650333374016,-0.043000000000000003
1679518650341070544,-0.068
1679518650348767072,-0.10400000000000001
1679518650356463600,-0.12
1679518650364160128,-0.12
1679518650371856656,-0.133
1679518650379553184,-0.152
1679518650387249712,-0.156
1679518650394946240,-0.145
1679518650402642768,-0.135
1679518650410339296,-0.135
1679518650418035824,-0.129
1679518650425732352,-0.114
1679518650433428880,-0.11800000000000001
1679518650441125408,-0.125
1679518650448821936,-0.112
1679518650456518464,-0.093
1679518650464214992,-0.08700000000000001
1679518650471911520,-0.091
1679518650479608048,-0.093
1679518650487304576,-0.097
1679518650495001104,-0.122
1679518650502697632,-0.147
1679518650510394160,-0.137
1679518650518090688,-0.11800000000000001
1679518650525787216,-0.129
1679518650533483744,-0.133
1679518650541180272,-0.108
1679518650548876800,-0.085
1679518650556573328,-0.079
1679518650564269856,-0.077
1679518650571966384,-0.068
1679518650579662912,-0.06
1679518650587359440,-0.05
1679518650595055968,-0.035
1679518650602752496,-0.016
1679518650610449024,-0.004
1679518650618145552,-0.01
1679518650625842080,-0.01
1679518650633538608,0.014
1679518650641235136,0.031
1679518650648931664,0.025
1679518650656628192,0.018000000000000002
1679518650664324720,0.027
1679518650672021248,0.035
1679518650679717776,0.039
1679518650687414304,0.047
1679518650695110842,0.064
1679518650702807230,0.075
1679518650710503618,0.068
1679518650718200006,0.068
1679518650725896394,0.091
1679518650733592782,0.10400000000000001
1679518650741289170,0.083
1679518650748985558,0.062
1679518650756681946,0.062
1679518650764378334,0.043000000000000003
1679518650772074722,-0.002
1679518650779771110,-0.012
1679518650787467498,0.016
1679518650795163886,0.016
1679518650802860274,-0.004
1679518650810556662,0.008
1679518650818253050,0.039
1679518650825949438,0.031
1679518650833645826,-0.014
1679518650841342214,-0.027
1679518650849038602,0.0
1679518650856734990,0.008
1679518650864431378,0.014
1679518650872127766,0.041
1679518650879824154,0.041
1679518650887520542,0.006
1679518650895216930,-0.012
1679518650902913318,0.006
1679518650910609706,0.025
1679518650918306094,0.027
1679518650926002482,0.039
1679518650933698870,0.06
1679518650941395258,0.07
1679518650949091646,0.131
1679518650956788034,0.333
1679518650964484422,0.637
1679518650972180810,0.887
1679518650979877198,0.8200000000000001
1679518650987573586,0.129
1679518650995269974,-0.618
1679518651002966362,-0.46
1679518651010662750,0.07200000000000001
1679518651018359138,0.11
1679518651026055526,0.006
1679518651033751914,0.081
1679518651041448302,0.10400000000000001
1679518651049144690,0.068
1679518651056841078,0.106
1679518651064537466,0.14100000000000001
1679518651072233854,0.125
1679518651079930242,0.125
1679518651087626630,0.15
1679518651095323018,0.16
1679518651103019406,0.162
1679518651110715794,0.179
1679518651118412182,0.195
1679518651126108570,0.193
1679518651133804958,0.185
1679518651141501346,0.202
1679518651149197734,0.227
1679518651156894122,0.229
1679518651164590510,0.225
1679518651172286898,0.233
1679518651179983286,0.241
1679518651187679674,0.243
1679518651195376062,0.245
1679518651203072450,0.26
1679518651210768838,0.266
1679518651218465226,0.245
1679518651226161614,0.216
1679518651233858002,0.191
1679518651241554390,0.16
1679518651249250778,0.139
1679518651256947222,0.135,61,982
1679518651264644098,0.125
1679518651272340974,0.125
1679518651280037850,0.14300000000000002
1679518651287734726,0.17200000000000001
1679518651295431602,0.20800000000000002
1679518651303128478,0.222
1679518651310825354,0.191
1679518651318522230,0.162
1679518651326219106,0.147
1679518651333915982,0.058
1679518651341612858,-0.077
1679518651349309734,-0.125
1679518651357006610,-0.12
1679518651364703486,-0.156
1679518651372400362,-0.191
1679518651380097238,-0.17500000000000002
1679518651387794114,-0.156
1679518651395490990,-0.166
1679518651403187866,-0.179
1679518651410884742,-0.17500000000000002
1679518651418581618,-0.158
1679518651426278494,-0.15
1679518651433975370,-0.15
1679518651441672246,-0.14300000000000002
1679518651449369122,-0.139
1679518651457065998,-0.14100000000000001
1679518651464762874,-0.133
1679518651472459750,-0.129
1679518651480156626,-0.154
1679518651487853502,-0.189
1679518651495550378,-0.195
1679518651503247254,-0.181
1679518651510944130,-0.166
1679518651518641006,-0.16
1679518651526337882,-0.152
1679518651534034758,-0.137
1679518651541731634,-0.133
1679518651549428510,-0.137
1679518651557125386,-0.12
1679518651564822262,-0.093
1679518651572519138,-0.079
1679518651580216014,-0.081
1679518651587912890,-0.079
1679518651595609766,-0.064
1679518651603306642,-0.047
1679518651611003518,-0.039
1679518651618700394,-0.025
1679518651626397270,-0.008
1679518651634094146,-0.01
1679518651641791022,-0.018000000000000002
1679518651649487898,-0.008
1679518651657184774,0.012
1679518651664881650,0.02
1679518651672578526,0.014
1679518651680275402,0.012
1679518651687972278,0.029
1679518651695669154,0.039
1679518651703366030,0.039
1679518651711062906,0.054
1679518651718759782,0.06
1679518651726456658,0.033
1679518651734153534,0.016
1679518651741850410,0.041
1679518651749547286,0.062
1679518651757244162,0.062
1679518651764941038,0.062
1679518651772637914,0.07
1679518651780334790,0.079
1679518651788031666,0.083
1679518651795728542,0.091
1679518651803425418,0.106
1679518651811122294,0.116
1679518651818819206,0.106
1679518651826515525,0.1
1679518651834211844,0.1
1679518651841908163,0.062
1679518651849604482,0.008
1679518651857300801,0.01
1679518651864997120,0.039
1679518651872693439,0.041
1679518651880389758,0.016
1679518651888086077,-0.008
1679518651895782396,-0.012
1679518651903478715,-0.02
1679518651911175034,-0.058
1679518651918871353,-0.07200000000000001
1679518651926567672,-0.045
1679518651934263991,-0.027
1679518651941960310,-0.029
1679518651949656629,-0.02
1679518651957352948,-0.008
1679518651965049267,0.002
1679518651972745586,0.056
1679518651980441905,0.231
1679518651988138224,0.525
1679518651995834543,0.783
1679518652003530862,0.735
1679518652011227181,0.106
1679518652018923500,-0.616
1679518652026619819,-0.545
1679518652034316138,-0.043000000000000003
1679518652042012457,0.062
1679518652049708776,-0.029
1679518652057405095,0.022
1679518652065101414,0.062
1679518652072797733,0.047
1679518652080494052,0.079
1679518652088190371,0.10200000000000001
1679518652095886690,0.083
1679518652103583009,0.093
1679518652111279328,0.125
1679518652118975647,0.129
1679518652126671966,0.131
1679518652134368285,0.156
1679518652142064604,0.166
1679518652149760923,0.156
1679518652157457242,0.16
1679518652165153561,0.189
1679518652172849880,0.21
1679518652180546199,0.20600000000000002
1679518652188242518,0.195
1679518652195938837,0.21
1679518652203635156,0.23700000000000002
1679518652211331475,0.243
1679518652219027794,0.222
1679518652226724113,0.197
1679518652234420432,0.185
1679518652242116751,0.17500000000000002
1679518652249813070,0.17200000000000001
1679518652257509389,0.183
1679518652265205708,0.183
1679518652272902027,0.16
1679518652280598346,0.14100000000000001
1679518652288294665,0.14300000000000002
1679518652295990984,0.158
1679518652303687303,0.17500000000000002
1679518652311383622,0.20600000000000002
1679518652319079941,0.23500000000000001
1679518652326776260,0.231
1679518652334472579,0.193
1679518652342168898,0.147
1679518652349865217,0.085
1679518652357561536,0.022
1679518652365257855,-0.012
1679518652372954174,-0.039
1679518652380650498,-0.06,61,957
1679518652388347095,-0.081
1679518652396043692,-0.1
1679518652403740289,-0.097
1679518652411436886,-0.10400000000000001
1679518652419133483,-0.16
1679518652426830080,-0.202
1679518652434526677,-0.177
1679518652442223274,-0.16
1679518652449919871,-0.181
1679518652457616468,-0.193
1679518652465313065,-0.20800000000000002
1679518652473009662,-0.23500000000000001
1679518652480706259,-0.23900000000000002
1679518652488402856,-0.218
1679518652496099453,-0.2
1679518652503796050,-0.197
1679518652511492647,-0.20400000000000001
1679518652519189244,-0.202
1679518652526885841,-0.181
1679518652534582438,-0.166
1679518652542279035,-0.162
1679518652549975632,-0.152
1679518652557672229,-0.14100000000000001
1679518652565368826,-0.139
1679518652573065423,-0.129
1679518652580762020,-0.108
1679518652588458617,-0.085
1679518652596155214,-0.081
1679518652603851811,-0.089
1679518652611548408,-0.077
1679518652619245005,-0.05
1679518652626941602,-0.041
1679518652634638199,-0.035
1679518652642334796,-0.02
1679518652650031393,-0.016
1679518652657727990,-0.022
1679518652665424587,-0.016
1679518652673121184,0.004
1679518652680817781,0.02
1679518652688514378,0.018000000000000002
1679518652696210975,0.01
1679518652703907572,0.01
1679518652711604169,-0.006
1679518652719300766,-0.029
1679518652726997363,-0.022
1679518652734693960,0.002
1679518652742390557,0.0
1679518652750087154,-0.006
1679518652757783751,0.01
1679518652765480348,0.035
1679518652773176945,0.047
1679518652780873542,0.043000000000000003
1679518652788570139,0.043000000000000003
1679518652796266736,0.056
1679518652803963333,0.068
1679518652811659930,0.07200000000000001
1679518652819356527,0.085
1679518652827053124,0.10200000000000001
1679518652834749721,0.1
1679518652842446318,0.07
1679518652850142915,0.029
1679518652857839512,0.006
1679518652865536109,0.016
1679518652873232706,0.029
1679518652880929303,0.047
1679518652888625900,0.079
1679518652896322497,0.079
1679518652904019094,0.058
1679518652911715691,0.062
1679518652919412288,0.062
1679518652927108885,0.029
1679518652934805482,0.016
1679518652942502138,0.045
1679518652950198596,0.062
1679518652957895054,0.043000000000000003
1679518652965591512,0.029
1679518652973287970,0.043000000000000003
1679518652980984428,0.108
1679518652988680886,0.272
1679518652996377344,0.537
1679518653004073802,0.795
1679518653011770260,0.729
1679518653019466718,0.02
1679518653027163176,-0.708
1679518653034859634,-0.52
1679518653042556092,0.014
1679518653050252550,0.047
1679518653057949008,-0.056
1679518653065645466,0.022
1679518653073341924,0.056
1679518653081038382,0.025
1679518653088734840,0.056
1679518653096431298,0.097
1679518653104127756,0.097
1679518653111824214,0.089
1679518653119520672,0.10400000000000001
1679518653127217130,0.129
1679518653134913588,0.14300000000000002
1679518653142610046,0.15
1679518653150306504,0.162
1679518653158002962,0.17200000000000001
1679518653165699420,0.17500000000000002
1679518653173395878,0.181
1679518653181092336,0.197
1679518653188788794,0.218
1679518653196485252,0.227
1679518653204181710,0.20800000000000002
1679518653211878168,0.189
1679518653219574626,0.202
1679518653227271084,0.21
1679518653234967542,0.20400000000000001
1679518653242664000,0.21
1679518653250360458,0.216
1679518653258056916,0.2
1679518653265753374,0.193
1679518653273449832,0.2
1679518653281146290,0.197
1679518653288842748,0.181
1679518653296539206,0.164
1679518653304235664,0.17
1679518653311932122,0.197
1679518653319628580,0.222
1679518653327325038,0.241
1679518653335021496,0.252
1679518653342717954,0.233
1679518653350414412,0.181
1679518653358110870,0.11800000000000001
1679518653365807328,0.075
1679518653373503786,0.052000000000000005
1679518653381200244,0.016
1679518653388896702,-0.016
1679518653396593160,-0.031
1679518653404289618,-0.045
1679518653411986076,-0.06
1679518653419682534,-0.056
1679518653427378992,-0.05
1679518653435075450,-0.062
1679518653442771908,-0.089
1679518653450468366,-0.114
1679518653458164824,-0.127
1679518653465861282,-0.125
1679518653473557740,-0.129
1679518653481254198,-0.133
1679518653488950656,-0.127
1679518653496647114,-0.11800000000000001
1679518653504343604,-0.116,61,998
1679518653512040062,-0.10200000000000001
1679518653519736520,-0.097
1679518653527432978,-0.147
1679518653535129436,-0.197
1679518653542825894,-0.179
1679518653550522352,-0.15
1679518653558218810,-0.156
1679518653565915268,-0.162
1679518653573611726,-0.15
1679518653581308184,-0.139
1679518653589004642,-0.131
1679518653596701100,-0.116
1679518653604397558,-0.095
1679518653612094016,-0.083
1679518653619790474,-0.08700000000000001
1679518653627486932,-0.081
1679518653635183390,-0.058
1679518653642879848,-0.043000000000000003
1679518653650576306,-0.047
1679518653658272764,-0.043000000000000003
1679518653665969222,-0.031
1679518653673665680,-0.025
1679518653681362138,-0.027
1679518653689058596,-0.027
1679518653696755054,-0.037
1679518653704451512,-0.058
1679518653712147970,-0.07200000000000001
1679518653719844428,-0.062
1679518653727540886,-0.039
1679518653735237344,-0.025
1679518653742933802,-0.02
1679518653750630260,-0.012
1679518653758326718,0.0
1679518653766023176,0.004
1679518653773719634,0.01
1679518653781416092,0.029
1679518653789112550,0.052000000000000005
1679518653796809008,0.054
1679518653804505466,0.043000000000000003
1679518653812201924,0.052000000000000005
1679518653819898382,0.075
1679518653827594840,0.081
1679518653835291298,0.081
1679518653842987756,0.095
1679518653850684214,0.085
1679518653858380672,0.029
1679518653866077130,-0.002
1679518653873773588,0.022
1679518653881470046,0.041
1679518653889166504,0.033
1679518653896862962,0.037
1679518653904559420,0.064
1679518653912255878,0.097
1679518653919952336,0.125
1679518653927648794,0.133
1679518653935345252,0.11
1679518653943041710,0.056
1679518653950738168,0.006
1679518653958434626,-0.002
1679518653966131084,0.014
1679518653973827542,0.022
1679518653981524000,0.018000000000000002
1679518653989220458,0.02
1679518653996916916,0.037
1679518654004613374,0.056
1679518654012309832,0.106
1679518654020006290,0.28300000000000003
1679518654027702748,0.577
1679518654035399206,0.8250000000000001
1679518654043095664,0.8310000000000001
1679518654050792122,0.316
1679518654058488580,-0.46
1679518654066185072,-0.525,61,1024
1679518654073881530,0.01
1679518654081577988,0.166
1679518654089274446,0.033
1679518654096970904,0.075
1679518654104667362,0.137
1679518654112363820,0.112
1679518654120060278,0.12
1679518654127756736,0.10400000000000001
1679518654135453194,0.043000000000000003
1679518654143149652,0.045
1679518654150846110,0.08700000000000001
1679518654158542568,0.089
1679518654166239026,0.081
1679518654173935484,0.089
1679518654181631942,0.095
1679518654189328400,0.081
1679518654197024858,0.07
1679518654204721316,0.089
1679518654212417774,0.112
1679518654220114232,0.10200000000000001
1679518654227810690,0.10200000000000001
1679518654235507148,0.135
1679518654243203606,0.15
1679518654250900064,0.145
1679518654258596522,0.16
1679518654266292980,0.168
1679518654273989438,0.158
1679518654281685896,0.156
1679518654289382354,0.168
1679518654297078812,0.17500000000000002
1679518654304775270,0.162
1679518654312471728,0.137
1679518654320168186,0.139
1679518654327864644,0.162
1679518654335561102,0.17500000000000002
1679518654343257560,0.181
1679518654350954018,0.20400000000000001
1679518654358650476,0.20600000000000002
1679518654366346934,0.14300000000000002
1679518654374043392,0.075
1679518654381739850,0.06
1679518654389436308,0.064
1679518654397132766,0.033
1679518654404829224,-0.012
1679518654412525682,-0.039
1679518654420222140,-0.043000000000000003
1679518654427918598,-0.062
1679518654435615056,-0.11
1679518654443311514,-0.137
1679518654451007972,-0.135
1679518654458704430,-0.14100000000000001
1679518654466400888,-0.14300000000000002
1679518654474097346,-0.129
1679518654481793804,-0.127
1679518654489490262,-0.135
1679518654497186720,-0.137
1679518654504883178,-0.122
1679518654512579636,-0.108
1679518654520276094,-0.11
1679518654527972552,-0.114
1679518654535669010,-0.1
1679518654543365468,-0.097
1679518654551061926,-0.106
1679518654558758384,-0.097
1679518654566454842,-0.077
1679518654574151300,-0.07200000000000001
1679518654581847758,-0.083
1679518654589544216,-0.081
1679518654597240674,-0.068
1679518654604937132,-0.058
1679518654612633590,-0.056
1679518654620330048,-0.05
1679518654628026538,-0.037
1679518654635722996,-0.037
1679518654643419454,-0.043000000000000003
1679518654651115912,-0.035
1679518654658812370,-0.016
1679518654666508828,-0.008
1679518654674205286,-0.022
1679518654681901744,-0.058
1679518654689598202,-0.077
1679518654697294660,-0.07
1679518654704991118,-0.06
1679518654712687576,-0.041
1679518654720384034,-0.039
1679518654728080492,-0.089
1679518654735776950,-0.14300000000000002
1679518654743473408,-0.127
1679518654751169866,-0.095
1679518654758866324,-0.1
1679518654766562782,-0.10200000000000001
1679518654774259240,-0.085
1679518654781955698,-0.075
1679518654789652156,-0.068
1679518654797348614,-0.054
1679518654805045072,-0.035
1679518654812741530,-0.022
1679518654820437988,-0.029
1679518654828134446,-0.025
1679518654835830904,0.002
1679518654843527362,0.027
1679518654851223820,0.037
1679518654858920278,0.062
1679518654866616736,0.081
1679518654874313194,0.033
1679518654882009652,-0.033
1679518654889706110,-0.039
1679518654897402568,-0.039
1679518654905099026,-0.066
1679518654912795484,-0.077
1679518654920491942,-0.075
1679518654928188400,-0.095
1679518654935884858,-0.11
1679518654943581316,-0.08700000000000001
1679518654951277774,-0.064
1679518654958974232,-0.041
1679518654966670690,0.066
1679518654974367148,0.333
1679518654982063606,0.675
1679518654989760064,0.872
1679518654997456522,0.543
1679518655005152980,-0.331
1679518655012849438,-0.754
1679518655020545896,-0.295
1679518655028242354,0.081
1679518655035938812,0.016
1679518655043635270,0.006
1679518655051331728,0.08700000000000001
1679518655059028186,0.085
1679518655066724644,0.07200000000000001
1679518655074421102,0.089
1679518655082117560,0.085
1679518655089814018,0.075
1679518655097510476,0.097
1679518655105206934,0.127
1679518655112903392,0.139
1679518655120599850,0.152
1679518655128296308,0.177
1679518655135992766,0.191
1679518655143689224,0.187
1679518655151385682,0.179
1679518655159082140,0.189
1679518655166778598,0.2
1679518655174475056,0.183
1679518655182171514,0.15
1679518655189868004,0.139,61,1008
1679518655197564462,0.156
1679518655205260920,0.166
1679518655212957378,0.17200000000000001
1679518655220653836,0.187
1679518655228350294,0.193
1679518655236046752,0.154
1679518655243743210,0.10200000000000001
1679518655251439668,0.089
1679518655259136126,0.10200000000000001
1679518655266832584,0.093
1679518655274529042,0.064
1679518655282225500,0.052000000000000005
1679518655289921958,0.075
1679518655297618416,0.097
1679518655305314874,0.108
1679518655313011332,0.131
1679518655320707790,0.129
1679518655328404248,0.077
1679518655336100706,0.045
1679518655343797164,0.058
1679518655351493622,0.054
1679518655359190080,0.022
1679518655366886538,0.002
1679518655374582996,-0.031
1679518655382279454,-0.116
1679518655389975912,-0.177
1679518655397672370,-0.158
1679518655405368828,-0.135
1679518655413065286,-0.156
1679518655420761744,-0.187
1679518655428458202,-0.189
1679518655436154660,-0.168
1679518655443851118,-0.16
1679518655451547576,-0.162
1679518655459244034,-0.158
1679518655466940492,-0.15
1679518655474636950,-0.147
1679518655482333408,-0.14300000000000002
1679518655490029866,-0.133
1679518655497726324,-0.116
1679518655505422782,-0.106
1679518655513119240,-0.112
1679518655520815698,-0.11
1679518655528512156,-0.089
1679518655536208614,-0.081
1679518655543905072,-0.079
1679518655551601530,-0.062
1679518655559297988,-0.058
1679518655566994446,-0.064
1679518655574690904,-0.05
1679518655582387362,-0.02
1679518655590083820,-0.008
1679518655597780278,-0.014
1679518655605476736,-0.02
1679518655613173194,-0.006
1679518655620869652,0.018000000000000002
1679518655628566110,0.022
1679518655636262568,0.022
1679518655643959026,0.029
1679518655651655484,0.031
1679518655659351942,0.031
1679518655667048400,0.025
1679518655674744858,0.022
1679518655682441316,0.035
1679518655690137774,0.035
1679518655697834232,0.029
1679518655705530690,0.054
1679518655713227148,0.081
1679518655720923606,0.081
1679518655728620064,0.08700000000000001
1679518655736316522,0.091
1679518655744012980,0.058
1679518655751709470,0.033
1679518655759405928,0.062
1679518655767102386,0.10400000000000001
1679518655774798844,0.11
1679518655782495302,0.089
1679518655790191760,0.075
1679518655797888218,0.091
1679518655805584676,0.12
1679518655813281134,0.233
1679518655820977592,0.531
1679518655828674050,0.858
1679518655836370508,0.883
1679518655844066966,0.3
1679518655851763424,-0.55
1679518655859459882,-0.639
1679518655867156340,-0.079
1679518655874852798,0.11
1679518655882549256,-0.056
1679518655890245714,-0.08700000000000001
1679518655897942172,-0.045
1679518655905638630,-0.07
1679518655913335088,-0.091
1679518655921031546,-0.08700000000000001
1679518655928728004,-0.093
1679518655936424462,-0.08700000000000001
1679518655944120920,-0.056
1679518655951817378,-0.027
1679518655959513836,-0.014
1679518655967210294,-0.004
1679518655974906752,0.014
1679518655982603210,0.033
1679518655990299668,0.043000000000000003
1679518655997996126,0.06
1679518656005692584,0.08700000000000001
1679518656013389042,0.106
1679518656021085500,0.10400000000000001
1679518656028781958,0.112
1679518656036478416,0.139
1679518656044174874,0.154
1679518656051871332,0.156
1679518656059567790,0.17
1679518656067264248,0.179
1679518656074960706,0.17200000000000001
1679518656082657164,0.166
1679518656090353622,0.17200000000000001
1679518656098050080,0.183
1679518656105746538,0.177
1679518656113442996,0.154
1679518656121139454,0.152
1679518656128835912,0.181
1679518656136532370,0.202
1679518656144228828,0.214
1679518656151925286,0.227
1679518656159621744,0.202
1679518656167318202,0.135
1679518656175014660,0.10200000000000001
1679518656182711118,0.11
1679518656190407576,0.108
1679518656198104034,0.077
1679518656205800492,0.037
1679518656213496950,0.031
1679518656221193408,0.027
1679518656228889866,-0.002
1679518656236586324,-0.012
1679518656244282782,-0.004
1679518656251979240,-0.014
1679518656259675698,-0.031
1679518656267372156,-0.022
1679518656275068614,-0.01
1679518656282765072,-0.008
1679518656290461530,-0.014
1679518656298157988,-0.022
1679518656305854446,-0.02
1679518656313550936,-0.01,61,1033
1679518656321247394,-0.01
1679518656328943852,-0.01
1679518656336640310,-0.004
1679518656344336768,-0.033
1679518656352033226,-0.091
1679518656359729684,-0.106
1679518656367426142,-0.079
1679518656375122600,-0.079
1679518656382819058,-0.11
1679518656390515516,-0.156
1679518656398211974,-0.212
1679518656405908432,-0.247
1679518656413604890,-0.254
1679518656421301348,-0.23900000000000002
1679518656428997806,-0.22
1679518656436694264,-0.22
1679518656444390722,-0.22
1679518656452087180,-0.195
1679518656459783638,-0.164
1679518656467480096,-0.152
1679518656475176554,-0.14300000000000002
1679518656482873012,-0.131
1679518656490569470,-0.116
1679518656498265928,-0.10400000000000001
1679518656505962386,-0.085
1679518656513658844,-0.058
1679518656521355302,-0.041
1679518656529051760,-0.041
1679518656536748218,-0.033
1679518656544444676,-0.002
1679518656552141134,0.033
1679518656559837592,0.052000000000000005
1679518656567534050,0.066
1679518656575230508,0.077
1679518656582926966,0.06
1679518656590623424,0.031
1679518656598319882,0.037
1679518656606016340,0.062
1679518656613712798,0.068
1679518656621409256,0.052000000000000005
1679518656629105714,0.056
1679518656636802172,0.083
1679518656644498630,0.095
1679518656652195088,0.125
1679518656659891546,0.291
1679518656667588004,0.589
1679518656675284462,0.841
1679518656682980920,0.789
1679518656690677378,0.16
1679518656698373836,-0.591
1679518656706070294,-0.518
1679518656713766752,0.016
1679518656721463210,0.116
1679518656729159668,0.01
1679518656736856126,0.07200000000000001
1679518656744552584,0.11800000000000001
1679518656752249042,0.089
1679518656759945500,0.10400000000000001
1679518656767641958,0.125
1679518656775338416,0.12
1679518656783034874,0.139
1679518656790731332,0.17
1679518656798427790,0.17
1679518656806124248,0.162
1679518656813820706,0.17500000000000002
1679518656821517164,0.193
1679518656829213622,0.2
1679518656836910080,0.20600000000000002
1679518656844606538,0.222
1679518656852302996,0.227
1679518656859999454,0.22
1679518656867695912,0.231
1679518656875392402,0.252
1679518656883088930,0.27
1679518656890785458,0.262
1679518656898481986,0.20800000000000002
1679518656906178514,0.156
1679518656913875042,0.14300000000000002
1679518656921571570,0.108
1679518656929268098,0.066
1679518656936964626,0.068
1679518656944661154,0.06
1679518656952357682,0.031
1679518656960054210,0.029
1679518656967750738,0.047
1679518656975447266,0.054
1679518656983143794,0.058
1679518656990840322,0.077
1679518656998536850,0.095
1679518657006233378,0.1
1679518657013929906,0.081
1679518657021626434,0.06
1679518657029322962,0.056
1679518657037019490,0.037
1679518657044716018,0.002
1679518657052412546,-0.008
1679518657060109074,0.0
1679518657067805602,-0.018000000000000002
1679518657075502130,-0.047
1679518657083198658,-0.054
1679518657090895186,-0.05
1679518657098591714,-0.056
1679518657106288242,-0.056
1679518657113984770,-0.037
1679518657121681298,-0.035
1679518657129377826,-0.058
1679518657137074354,-0.079
1679518657144770882,-0.091
1679518657152467410,-0.106
1679518657160163938,-0.11
1679518657167860466,-0.106
1679518657175556994,-0.112
1679518657183253522,-0.116
1679518657190950050,-0.112
1679518657198646578,-0.10200000000000001
1679518657206343106,-0.083
1679518657214039634,-0.079
1679518657221736162,-0.093
1679518657229432690,-0.091
1679518657237129218,-0.064
1679518657244825746,-0.056
1679518657252522274,-0.058
1679518657260218802,-0.043000000000000003
1679518657267915330,-0.033
1679518657275611858,-0.039
1679518657283308386,-0.033
1679518657291004914,-0.008
1679518657298701442,0.008
1679518657306397970,0.006
1679518657314094498,-0.008
1679518657321791026,0.0
1679518657329487554,0.027
1679518657337184082,0.035
1679518657344880610,0.037
1679518657352577138,0.058
1679518657360273666,0.07
1679518657367970194,0.062
1679518657375666722,0.07
1679518657383363250,0.089
1679518657391059778,0.066
1679518657398756306,0.0
1679518657406452834,-0.045
1679518657414149362,-0.058
1679518657421845890,-0.077
1679518657429542418,-0.091
1679518657437238956,-0.07200000000000001,61,949
1679518657444935484,-0.05
1679518657452632012,-0.052000000000000005
1679518657460328540,-0.056
1679518657468025068,-0.039
1679518657475721596,0.0
1679518657483418124,0.077
1679518657491114652,0.247
1679518657498811180,0.52
1679518657506507708,0.787
1679518657514204236,0.772
1679518657521900764,0.112
1679518657529597292,-0.706
1679518657537293820,-0.662
1679518657544990348,-0.129
1679518657552686876,-0.016
1679518657560383404,-0.1
1679518657568079932,-0.029
1679518657575776460,0.012
1679518657583472988,-0.022
1679518657591169516,-0.006
1679518657598866044,0.029
1679518657606562572,0.029
1679518657614259100,0.041
1679518657621955628,0.075
1679518657629652156,0.081
1679518657637348684,0.047
1679518657645045212,0.031
1679518657652741740,0.056
1679518657660438268,0.089
1679518657668134796,0.093
1679518657675831324,0.091
1679518657683527852,0.10400000000000001
1679518657691224380,0.114
1679518657698920908,0.112
1679518657706617436,0.122
1679518657714313964,0.156
1679518657722010492,0.17
1679518657729707020,0.154
1679518657737403548,0.147
1679518657745100076,0.168
1679518657752796604,0.179
1679518657760493132,0.17200000000000001
1679518657768189660,0.168
1679518657775886188,0.16
1679518657783582716,0.147
1679518657791279244,0.135
1679518657798975772,0.139
1679518657806672300,0.162
1679518657814368828,0.17200000000000001
1679518657822065356,0.164
1679518657829761884,0.179
1679518657837458412,0.20800000000000002
1679518657845154940,0.191
1679518657852851468,0.14300000000000002
1679518657860547996,0.125
1679518657868244524,0.116
1679518657875941052,0.085
1679518657883637580,0.041
1679518657891334108,0.014
1679518657899030636,-0.022
1679518657906727164,-0.11
1679518657914423692,-0.17500000000000002
1679518657922120220,-0.16
1679518657929816748,-0.139
1679518657937513276,-0.147
1679518657945209804,-0.147
1679518657952906332,-0.137
1679518657960602860,-0.145
1679518657968299388,-0.154
1679518657975995916,-0.145
1679518657983692444,-0.129
1679518657991388972,-0.114
1679518657999085508,-0.116
1679518658006782036,-0.131
1679518658014478564,-0.12
1679518658022175092,-0.1
1679518658029871620,-0.10200000000000001
1679518658037568148,-0.1
1679518658045264676,-0.085
1679518658052961204,-0.10400000000000001
1679518658060657732,-0.156
1679518658068354260,-0.17500000000000002
1679518658076050788,-0.14300000000000002
1679518658083747316,-0.127
1679518658091443844,-0.139
1679518658099140372,-0.14100000000000001
1679518658106836900,-0.11800000000000001
1679518658114533428,-0.10400000000000001
1679518658122229956,-0.112
1679518658129926484,-0.131
1679518658137623012,-0.133
1679518658145319540,-0.131
1679518658153016068,-0.135
1679518658160712596,-0.11800000000000001
1679518658168409124,-0.083
1679518658176105652,-0.06
1679518658183802180,-0.06
1679518658191498708,-0.054
1679518658199195236,-0.025
1679518658206891764,0.0
1679518658214588292,0.016
1679518658222284820,0.05
1679518658229981348,0.064
1679518658237677876,0.018000000000000002
1679518658245374404,-0.008
1679518658253070932,0.02
1679518658260767460,0.043000000000000003
1679518658268463988,0.041
1679518658276160516,0.043000000000000003
1679518658283857044,0.058
1679518658291553572,0.07
1679518658299250100,0.097
1679518658306946628,0.214
1679518658314643156,0.485
1679518658322339684,0.812
1679518658330036212,0.983
1679518658337732740,0.66
1679518658345429268,-0.181
1679518658353125796,-0.627
1679518658360822324,-0.20600000000000002
1679518658368518852,0.17200000000000001
1679518658376215380,0.075
1679518658383911908,0.01
1679518658391608436,0.089
1679518658399304964,0.083
1679518658407001492,0.022
1679518658414698020,-0.006
1679518658422394548,-0.022
1679518658430091076,-0.016
1679518658437787604,0.016
1679518658445484132,0.033
1679518658453180660,0.037
1679518658460877188,0.056
1679518658468573716,0.075
1679518658476270244,0.075
1679518658483966772,0.085
1679518658491663300,0.116
1679518658499359828,0.14300000000000002
1679518658507056356,0.14300000000000002
1679518658514752884,0.14100000000000001
1679518658522449412,0.158
1679518658530145940,0.181
1679518658537842468,0.187
1679518658545538996,0.195
1679518658553235524,0.21
1679518658560932060,0.20800000000000002,61,844
1679518658568628727,0.195,,846
1679518658576325394,0.193
1679518658584022061,0.20400000000000001
1679518658591718728,0.20800000000000002
1679518658599415395,0.193
1679518658607112062,0.168
1679518658614808729,0.154
1679518658622505396,0.125
1679518658630202063,0.068
1679518658637898730,0.058
1679518658645595397,0.095
1679518658653292064,0.091
1679518658660988731,0.047
1679518658668685398,0.022
1679518658676382065,0.027
1679518658684078732,0.025
1679518658691775399,0.0
1679518658699472066,-0.027
1679518658707168733,-0.035
1679518658714865400,-0.033
1679518658722562067,-0.054
1679518658730258734,-0.06
1679518658737955401,-0.047
1679518658745652068,-0.056
1679518658753348735,-0.07200000000000001
