ts,red,ir,green
1679518670755465,105621.0,145651.0,8821.0
1679518670765465,105604.0,145599.0,8835.0
1679518670775465,105595.0,145585.0,8825.0
1679518670786465,105610.0,145600.0,8821.0
1679518670795465,105576.0,145613.0,8827.0
1679518670806465,105620.0,145589.0,8829.0
1679518670815465,105610.0,145556.0,8832.0
1679518670826465,105609.0,145553.0,8815.0
1679518670835465,105617.0,145537.0,8816.0
1679518670847465,105605.0,145593.0,8824.0
1679518670855465,105616.0,145583.0,8823.0
1679518670866464,105593.0,145593.0,8835.0
1679518670874464,105582.0,145583.0,8833.0
1679518670885464,105616.0,145588.0,8788.0
1679518670895464,105623.0,145590.0,8805.0
1679518670906465,105630.0,145573.0,8802.0
1679518670915465,105628.0,145579.0,8829.0
1679518670925465,105606.0,145579.0,8808.0
1679518670935465,105611.0,145587.0,8793.0
1679518670947465,105631.0,145582.0,8807.0
1679518670955465,105616.0,145597.0,8816.0
1679518670965465,105619.0,145591.0,8773.0
1679518670976465,105621.0,145571.0,8789.0
1679518670985465,105622.0,145579.0,8824.0
1679518670996465,105622.0,145594.0,8823.0
1679518671005465,105604.0,145551.0,8826.0
1679518671016465,105620.0,145593.0,8825.0
1679518671025465,105613.0,145599.0,8823.0
1679518671036465,105621.0,145556.0,8835.0
1679518671045465,105617.0,145575.0,8812.0
1679518671055465,105602.0,145573.0,8832.0
1679518671065465,105617.0,145602.0,8829.0
1679518671076465,105615.0,145598.0,8828.0
1679518671085465,105619.0,145623.0,8814.0
1679518671095465,105593.0,145619.0,8825.0
1679518671105465,105626.0,145573.0,8832.0
1679518671116464,105620.0,145610.0,8815.0
1679518671125465,105619.0,145621.0,8824.0
1679518671135465,105615.0,145558.0,8827.0
1679518671145465,105605.0,145586.0,8826.0
1679518671156464,105607.0,145658.0,8838.0
1679518671165465,105580.0,145642.0,8836.0
1679518671175464,105613.0,145665.0,8795.0
1679518671185464,105612.0,145659.0,8844.0
1679518671195464,105609.0,145663.0,8831.0
1679518671206464,105602.0,145702.0,8845.0
1679518671215464,105583.0,145654.0,8840.0
1679518671226464,105604.0,145670.0,8838.0
1679518671235464,105591.0,145654.0,8840.0
1679518671246464,105587.0,145616.0,8835.0
1679518671255464,105588.0,145611.0,8821.0
1679518671265465,105539.0,145653.0,8827.0
1679518671275465,105564.0,145619.0,8818.0
1679518671286465,105568.0,145632.0,8820.0
1679518671295465,105589.0,145638.0,8816.0
1679518671306465,105576.0,145634.0,8825.0
1679518671315465,105590.0,145607.0,8816.0
1679518671326465,105579.0,145585.0,8817.0
1679518671335465,105596.0,145552.0,8815.0
1679518671345465,105583.0,145592.0,8803.0
1679518671355465,105592.0,145614.0,8817.0
1679518671366464,105586.0,145595.0,8798.0
1679518671374464,105584.0,145610.0,8780.0
1679518671385464,105609.0,145577.0,8795.0
1679518671395464,105599.0,145588.0,8819.0
1679518671405464,105603.0,145602.0,8804.0
1679518671415464,105599.0,145594.0,8812.0
1679518671425464,105590.0,145573.0,8810.0
1679518671436464,105606.0,145616.0,8806.0
1679518671445465,105597.0,145632.0,8818.0
1679518671456465,105590.0,145568.0,8814.0
1679518671465465,105605.0,145549.0,8813.0
1679518671475465,105580.0,145587.0,8817.0
1679518671485465,105599.0,145614.0,8822.0
1679518671496465,105595.0,145610.0,8813.0
1679518671505465,105590.0,145634.0,8813.0
1679518671515465,105589.0,145581.0,8825.0
1679518671525465,105594.0,145557.0,8812.0
1679518671536465,105580.0,145580.0,8800.0
1679518671545465,105589.0,145619.0,8825.0
1679518671555465,105595.0,145572.0,8823.0
1679518671565465,105543.0,145618.0,8810.0
1679518671576465,105542.0,145627.0,8811.0
1679518671585465,105594.0,145623.0,8817.0
1679518671595465,105592.0,145624.0,8808.0
1679518671605465,105554.0,145637.0,8819.0
1679518671616464,105590.0,145623.0,8804.0
1679518671625465,105562.0,145612.0,8823.0
1679518671635465,105562.0,145612.0,8815.0
1679518671645465,105583.0,145580.0,8812.0
1679518671656465,105587.0,145607.0,8816.0
1679518671665465,105565.0,145598.0,8820.0
1679518671675465,105554.0,145631.0,8817.0
1679518671685465,105577.0,145596.0,8810.0
1679518671695465,105592.0,145632.0,8783.0
1679518671706465,105594.0,145601.0,8799.0
1679518671715465,105605.0,145611.0,8807.0
1679518671726465,105575.0,145597.0,8822.0
1679518671735465,105607.0,145583.0,8823.0
1679518671746465,105602.0,145602.0,8811.0
1679518671755465,105592.0,145620.0,8823.0
1679518671765465,105608.0,145618.0,8812.0
1679518671775465,105601.0,145633.0,8808.0
1679518671786465,105556.0,145628.0,8825.0
1679518671795465,105593.0,145625.0,8822.0
1679518671805465,105607.0,145639.0,8814.0
1679518671815465,105548.0,145625.0,8827.0
1679518671826465,105587.0,145597.0,8823.0
1679518671835465,105595.0,145605.0,8822.0
1679518671845465,105603.0,145633.0,8813.0
1679518671855465,105607.0,145605.0,8817.0
1679518671866464,105598.0,145619.0,8816.0
1679518671875465,105601.0,145622.0,8819.0
1679518671885465,105595.0,145587.0,8811.0
1679518671895465,105588.0,145590.0,8818.0
1679518671906464,105589.0,145622.0,8816.0
1679518671915465,105591.0,145620.0,8822.0
1679518671925464,105587.0,145622.0,8814.0
1679518671935464,105546.0,145619.0,8840.0
1679518671945464,105550.0,145619.0,8819.0
1679518671956464,105556.0,145641.0,8820.0
1679518671965464,105593.0,145675.0,8838.0
1679518671975464,105563.0,145604.0,8826.0
1679518671985465,105556.0,145645.0,8832.0
1679518671996465,105556.0,145672.0,8837.0
1679518672005465,105572.0,145609.0,8836.0
1679518672015465,105541.0,145624.0,8827.0
1679518672025465,105536.0,145645.0,8829.0
1679518672036465,105567.0,145653.0,8822.0
1679518672045465,105549.0,145640.0,8821.0
1679518672056465,105538.0,145611.0,8829.0
1679518672065465,105550.0,145578.0,8818.0
1679518672076465,105549.0,145628.0,8806.0
1679518672084464,105523.0,145607.0,8811.0
1679518672095464,105518.0,145615.0,8801.0
1679518672105464,105553.0,145604.0,8781.0
1679518672115464,105566.0,145579.0,8806.0
1679518672124464,105555.0,145581.0,8796.0
1679518672135464,105558.0,145584.0,8797.0
1679518672146464,105555.0,145588.0,8818.0
1679518672157464,105559.0,145561.0,8810.0
1679518672165465,105564.0,145552.0,8833.0
1679518672175465,105545.0,145605.0,8815.0
1679518672185465,105571.0,145558.0,8810.0
1679518672195465,105564.0,145584.0,8822.0
1679518672205465,105572.0,145622.0,8819.0
1679518672215465,105584.0,145602.0,8798.0
1679518672225465,105574.0,145624.0,8824.0
1679518672235465,105573.0,145616.0,8820.0
1679518672246465,105577.0,145592.0,8824.0
1679518672255465,105571.0,145566.0,8817.0
1679518672265465,105551.0,145624.0,8820.0
1679518672275465,105526.0,145671.0,8827.0
1679518672286465,105560.0,145627.0,8807.0
1679518672294464,105591.0,145637.0,8801.0
1679518672305464,105585.0,145651.0,8801.0
1679518672316464,105598.0,145636.0,8825.0
1679518672325464,105602.0,145648.0,8823.0
1679518672335464,105576.0,145650.0,8836.0
1679518672345465,105589.0,145613.0,8831.0
1679518672355465,105575.0,145627.0,8816.0
1679518672365465,105587.0,145646.0,8828.0
1679518672375465,105590.0,145639.0,8831.0
1679518672385465,105587.0,145653.0,8830.0
1679518672396464,105588.0,145659.0,8831.0
1679518672405465,105584.0,145661.0,8826.0
1679518672415465,105588.0,145608.0,8828.0
1679518672425464,105592.0,145663.0,8831.0
1679518672435464,105592.0,145625.0,8832.0
1679518672445464,105581.0,145620.0,8824.0
1679518672456464,105603.0,145651.0,8836.0
1679518672465464,105588.0,145651.0,8827.0
1679518672475464,105597.0,145672.0,8836.0
1679518672485464,105583.0,145626.0,8831.0
1679518672496464,105610.0,145665.0,8835.0
1679518672504464,105606.0,145695.0,8827.0
1679518672515464,105580.0,145696.0,8851.0
1679518672525465,105558.0,145670.0,8837.0
1679518672536465,105592.0,145677.0,8809.0
1679518672545465,105600.0,145645.0,8827.0
1679518672555465,105609.0,145678.0,8838.0
1679518672565465,105598.0,145691.0,8836.0
1679518672576465,105608.0,145635.0,8856.0
1679518672584464,105608.0,145650.0,8838.0
1679518672595464,105627.0,145703.0,8851.0
1679518672605464,105621.0,145670.0,8849.0
1679518672616464,105621.0,145680.0,8844.0
1679518672624464,105626.0,145726.0,8846.0
1679518672635464,105633.0,145672.0,8842.0
1679518672645464,105633.0,145710.0,8842.0
1679518672656464,105644.0,145741.0,8857.0
1679518672665464,105648.0,145714.0,8849.0
1679518672675464,105649.0,145762.0,8842.0
1679518672685464,105602.0,145730.0,8848.0
1679518672695464,105628.0,145738.0,8859.0
1679518672705465,105643.0,145744.0,8818.0
1679518672715465,105656.0,145758.0,8846.0
1679518672725465,105636.0,145785.0,8871.0
1679518672735465,105605.0,145788.0,8869.0
1679518672745465,105609.0,145788.0,8857.0
1679518672755465,105645.0,145827.0,8854.0
1679518672765465,105644.0,145807.0,8860.0
1679518672775465,105639.0,145799.0,8833.0
1679518672785465,105602.0,145775.0,8863.0
1679518672795465,105625.0,145761.0,8822.0
1679518672805465,105614.0,145700.0,8866.0
1679518672815465,105617.0,145666.0,8860.0
1679518672826465,105583.0,145630.0,8860.0
1679518672835465,105573.0,145552.0,8861.0
1679518672845465,105578.0,145515.0,8857.0
1679518672855465,105576.0,145432.0,8845.0
1679518672866464,105510.0,145326.0,8847.0
1679518672874464,105483.0,145181.0,8832.0
1679518672885465,105433.0,145154.0,8844.0
1679518672895465,105422.0,145082.0,8855.0
1679518672906465,105406.0,145009.0,8844.0
1679518672915465,105404.0,144919.0,8844.0
1679518672924465,105393.0,144837.0,8828.0
1679518672935465,105373.0,144777.0,8813.0
1679518672945465,105490.0,144753.0,8850.0
1679518672955465,105549.0,144731.0,8854.0
1679518672965465,105573.0,144741.0,8846.0
1679518672975465,105615.0,144691.0,8843.0
1679518672985465,105636.0,144741.0,8827.0
1679518672995465,105629.0,144733.0,8839.0
1679518673005465,105592.0,144740.0,8842.0
1679518673015465,105611.0,144718.0,8851.0
1679518673025465,105606.0,144718.0,8848.0
1679518673035465,105628.0,144706.0,8843.0
1679518673045465,105630.0,144720.0,8824.0
1679518673055465,105574.0,144721.0,8861.0
1679518673065465,105615.0,144716.0,8832.0
1679518673075465,105634.0,144736.0,8866.0
1679518673085465,105645.0,144727.0,8832.0
1679518673095465,105638.0,144726.0,8863.0
1679518673105465,105630.0,144722.0,8874.0
1679518673115465,105579.0,144721.0,8865.0
1679518673125465,105594.0,144679.0,8844.0
1679518673134465,105598.0,144651.0,8840.0
1679518673145465,105545.0,144628.0,8873.0
1679518673155465,105537.0,144580.0,8857.0
1679518673165465,105554.0,144600.0,8846.0
1679518673175464,105538.0,144560.0,8889.0
1679518673185464,105536.0,144524.0,8872.0
1679518673196464,105523.0,144578.0,8879.0
1679518673205464,105539.0,144586.0,8888.0
1679518673215464,105551.0,144579.0,8889.0
1679518673225464,105558.0,144613.0,8911.0
1679518673235464,105576.0,144712.0,8891.0
1679518673245465,105578.0,144717.0,8894.0
1679518673255465,105561.0,144734.0,8912.0
1679518673265465,105571.0,144706.0,8901.0
1679518673275465,105552.0,144703.0,8864.0
1679518673285465,105545.0,144662.0,8882.0
1679518673295465,105522.0,144618.0,8914.0
1679518673305465,105534.0,144618.0,8911.0
1679518673315465,105538.0,144620.0,8899.0
1679518673325465,105501.0,144626.0,8912.0
1679518673335465,105536.0,144618.0,8903.0
1679518673344465,105571.0,144630.0,8871.0
1679518673355465,105587.0,144631.0,8892.0
1679518673366464,105586.0,144625.0,8899.0
1679518673374464,105611.0,144639.0,8901.0
1679518673385464,105550.0,144610.0,8906.0
1679518673395464,105566.0,144568.0,8911.0
1679518673406464,105548.0,144527.0,8904.0
1679518673415464,105521.0,144555.0,8910.0
1679518673425465,105496.0,144500.0,8923.0
1679518673435465,105484.0,144428.0,8912.0
1679518673446465,105450.0,144463.0,8916.0
1679518673455465,105430.0,144469.0,8926.0
1679518673465465,105369.0,144436.0,8934.0
1679518673475465,105334.0,144456.0,8930.0
1679518673485465,105353.0,144404.0,8925.0
1679518673495465,105362.0,144424.0,8919.0
1679518673504465,105345.0,144439.0,8897.0
1679518673515465,105359.0,144446.0,8924.0
1679518673525465,105364.0,144452.0,8943.0
1679518673535465,105350.0,144474.0,8913.0
1679518673544465,105375.0,144477.0,8912.0
1679518673555465,105391.0,144505.0,8926.0
1679518673566465,105409.0,144514.0,8907.0
1679518673575465,105437.0,144539.0,8929.0
1679518673585465,105464.0,144544.0,8930.0
1679518673595465,105503.0,144605.0,8929.0
1679518673605465,105521.0,144630.0,8929.0
1679518673615465,105556.0,144598.0,8924.0
1679518673624465,105574.0,144623.0,8909.0
1679518673635465,105580.0,144609.0,8908.0
1679518673645465,105553.0,144590.0,8917.0
1679518673655465,105506.0,144559.0,8888.0
1679518673666464,105511.0,144523.0,8912.0
1679518673675464,105487.0,144483.0,8914.0
1679518673685464,105460.0,144453.0,8920.0
1679518673695464,105434.0,144389.0,8923.0
1679518673706464,105431.0,144450.0,8936.0
1679518673714464,105400.0,144433.0,8940.0
1679518673725464,105367.0,144412.0,8942.0
1679518673735464,105294.0,144365.0,8957.0
1679518673746464,105355.0,144369.0,8965.0
1679518673754464,105302.0,144317.0,8987.0
1679518673765464,105241.0,144237.0,8991.0
1679518673775464,105253.0,144215.0,8989.0
1679518673785465,105246.0,144164.0,8961.0
1679518673794465,105252.0,144144.0,8968.0
1679518673805465,105255.0,144160.0,8978.0
1679518673815465,105237.0,144147.0,8989.0
1679518673825465,105257.0,144145.0,8986.0
1679518673834465,105286.0,144174.0,8972.0
1679518673845465,105280.0,144182.0,8988.0
1679518673855465,105267.0,144204.0,8981.0
1679518673865465,105321.0,144224.0,8979.0
1679518673874465,105308.0,144238.0,8975.0
1679518673885465,105354.0,144238.0,8942.0
1679518673895465,105313.0,144225.0,8989.0
1679518673905465,105337.0,144233.0,8938.0
1679518673915465,105353.0,144231.0,8962.0
1679518673925464,105346.0,144214.0,8949.0
1679518673934465,105330.0,144214.0,8939.0
1679518673945464,105332.0,144169.0,8964.0
1679518673955464,105263.0,144148.0,8982.0
1679518673965465,105270.0,144151.0,8958.0
1679518673974465,105241.0,144102.0,8993.0
1679518673985465,105216.0,144114.0,8998.0
1679518673996465,105175.0,144080.0,9010.0
1679518674005465,105117.0,144047.0,9009.0
1679518674014465,105038.0,144022.0,9012.0
1679518674025465,105116.0,144050.0,8969.0
1679518674035465,105114.0,144024.0,9005.0
1679518674045465,105111.0,144042.0,8994.0
1679518674054465,105121.0,144043.0,8990.0
1679518674065465,105132.0,144040.0,9003.0
1679518674076465,105132.0,144058.0,8997.0
1679518674084464,105155.0,144071.0,9018.0
1679518674095464,105180.0,144070.0,9021.0
1679518674105464,105187.0,144068.0,9010.0
1679518674115464,105178.0,144090.0,9017.0
1679518674124464,105189.0,144133.0,9020.0
1679518674135464,105185.0,144119.0,9028.0
1679518674145465,105195.0,144121.0,9009.0
1679518674155465,105177.0,144143.0,9031.0
1679518674165465,105186.0,144120.0,9010.0
1679518674175465,105169.0,144108.0,9031.0
1679518674185465,105109.0,144131.0,9032.0
1679518674195465,105135.0,144075.0,9033.0
1679518674205465,105138.0,144051.0,9037.0
1679518674215465,105120.0,144086.0,9035.0
1679518674225465,105124.0,144106.0,9031.0
1679518674235465,105148.0,144157.0,9028.0
1679518674245465,105148.0,144165.0,9010.0
1679518674255465,105153.0,144133.0,9027.0
1679518674264465,105175.0,144177.0,9002.0
1679518674275465,105172.0,144174.0,9004.0
1679518674285465,105212.0,144190.0,9001.0
1679518674295465,105199.0,144149.0,9005.0
1679518674304465,105195.0,144146.0,8958.0
1679518674315465,105192.0,144174.0,9000.0
1679518674325465,105201.0,144152.0,8978.0
1679518674335465,105211.0,144135.0,8954.0
1679518674344465,105147.0,144147.0,8998.0
1679518674355465,105146.0,144109.0,8997.0
1679518674365465,105166.0,144085.0,8966.0
1679518674375465,105157.0,144073.0,9012.0
1679518674384465,105166.0,144071.0,8999.0
1679518674395465,105145.0,144070.0,9003.0
1679518674405465,105142.0,143988.0,9009.0
1679518674415465,105123.0,144010.0,9009.0
1679518674424465,105109.0,144042.0,9017.0
1679518674435464,105114.0,143990.0,9010.0
1679518674445464,105095.0,144015.0,9016.0
1679518674456464,105092.0,144028.0,9018.0
1679518674464464,105065.0,143986.0,9021.0
1679518674475464,105070.0,143995.0,9028.0
1679518674485464,105096.0,143990.0,9023.0
1679518674495464,105022.0,143969.0,9034.0
1679518674504465,105000.0,143963.0,9024.0
1679518674515465,105043.0,143976.0,8994.0
1679518674525465,105051.0,144000.0,9022.0
1679518674535465,105035.0,143993.0,9024.0
1679518674544465,105055.0,143989.0,9024.0
1679518674555465,105092.0,143986.0,9013.0
1679518674565465,105109.0,144008.0,9017.0
1679518674575465,105113.0,144010.0,9010.0
1679518674584465,105111.0,144018.0,9009.0
1679518674595465,105104.0,144043.0,9013.0
1679518674605465,105118.0,144077.0,9020.0
1679518674615465,105175.0,144140.0,9005.0
1679518674624465,105168.0,144171.0,9008.0
1679518674635465,105247.0,144181.0,9002.0
1679518674644465,105210.0,144199.0,9017.0
1679518674655465,105188.0,144159.0,9014.0
1679518674665465,105187.0,144124.0,8993.0
1679518674676464,105154.0,144088.0,8988.0
1679518674685465,105164.0,144063.0,8983.0
1679518674695465,105150.0,144056.0,9018.0
1679518674705465,105156.0,144077.0,9018.0
1679518674715465,105148.0,144126.0,9010.0
1679518674725465,105214.0,144149.0,9015.0
1679518674735465,105251.0,144170.0,8998.0
1679518674745465,105270.0,144245.0,9008.0
1679518674755465,105301.0,144306.0,8998.0
1679518674764465,105319.0,144334.0,8997.0
1679518674777465,105305.0,144346.0,9016.0
1679518674786465,105309.0,144349.0,9005.0
1679518674794465,105382.0,144386.0,8992.0
1679518674805465,105366.0,144398.0,9001.0
1679518674815465,105385.0,144366.0,8998.0
1679518674825465,105410.0,144374.0,9001.0
1679518674834465,105387.0,144360.0,8991.0
1679518674845465,105371.0,144375.0,8995.0
1679518674855465,105346.0,144294.0,9003.0
1679518674865465,105312.0,144256.0,9001.0
1679518674874465,105270.0,144238.0,9013.0
1679518674885465,105244.0,144194.0,9012.0
1679518674895465,105187.0,144139.0,9034.0
1679518674905465,105158.0,144139.0,9031.0
1679518674915465,105136.0,144079.0,9046.0
1679518674925465,105096.0,144116.0,9042.0
1679518674934465,105090.0,144107.0,9056.0
1679518674945465,105072.0,144152.0,9035.0
1679518674955465,105074.0,144141.0,9048.0
1679518674965465,105026.0,144125.0,9060.0
1679518674974465,105068.0,144166.0,9050.0
1679518674985465,105083.0,144174.0,9056.0
1679518674995465,105109.0,144153.0,9022.0
1679518675004465,105074.0,144166.0,9050.0
1679518675014465,105094.0,144151.0,9020.0
1679518675025465,105131.0,144152.0,8997.0
1679518675035465,105101.0,144117.0,9030.0
1679518675044465,105156.0,144138.0,8999.0
1679518675054465,105183.0,144158.0,9001.0
1679518675065465,105198.0,144192.0,9012.0
1679518675075465,105178.0,144174.0,9018.0
1679518675084465,105185.0,144173.0,9013.0
1679518675095465,105243.0,144156.0,8986.0
1679518675105465,105247.0,144207.0,9006.0
1679518675115465,105246.0,144207.0,9014.0
1679518675124465,105252.0,144201.0,9009.0
1679518675135465,105261.0,144182.0,9004.0
1679518675144465,105245.0,144180.0,9006.0
1679518675155465,105238.0,144198.0,9020.0
1679518675165465,105219.0,144175.0,9015.0
1679518675175464,105177.0,144179.0,9033.0
1679518675184465,105195.0,144141.0,9016.0
1679518675195464,105175.0,144118.0,8996.0
1679518675205464,105196.0,144142.0,8999.0
1679518675214465,105161.0,144130.0,9024.0
1679518675224465,105192.0,144191.0,9009.0
1679518675235465,105231.0,144246.0,8994.0
1679518675245465,105231.0,144265.0,9023.0
1679518675254465,105227.0,144249.0,9025.0
1679518675264465,105158.0,144212.0,9033.0
1679518675275465,105189.0,144180.0,9032.0
1679518675285465,105177.0,144140.0,9022.0
1679518675294465,105185.0,144101.0,8979.0
1679518675304465,105143.0,144131.0,9028.0
1679518675315465,105222.0,144202.0,8985.0
1679518675325465,105258.0,144198.0,8996.0
1679518675334465,105274.0,144224.0,9010.0
1679518675345465,105282.0,144239.0,9022.0
1679518675355465,105275.0,144246.0,9018.0
1679518675365465,105258.0,144239.0,9027.0
1679518675374465,105266.0,144223.0,9030.0
1679518675385465,105269.0,144209.0,9025.0
1679518675394465,105243.0,144215.0,9033.0
1679518675405465,105258.0,144245.0,9042.0
1679518675415465,105239.0,144251.0,9040.0
1679518675425465,105229.0,144185.0,9033.0
1679518675434465,105228.0,144193.0,9041.0
1679518675445465,105223.0,144201.0,9032.0
1679518675455465,105212.0,144161.0,9033.0
1679518675465465,105183.0,144140.0,9047.0
1679518675475465,105183.0,144096.0,9045.0
1679518675485465,105167.0,144127.0,9048.0
1679518675495465,105094.0,144114.0,9055.0
1679518675505465,105121.0,144097.0,9047.0
1679518675514465,105107.0,144057.0,9054.0
1679518675525465,105106.0,144096.0,9065.0
1679518675535465,105092.0,144102.0,9051.0
1679518675544465,105083.0,144115.0,9058.0
1679518675554465,105050.0,144096.0,9068.0
1679518675565465,105060.0,144081.0,9046.0
1679518675575465,105044.0,144107.0,9081.0
1679518675584465,105018.0,144086.0,9080.0
1679518675594465,105060.0,144098.0,9076.0
1679518675605465,105066.0,144104.0,9039.0
1679518675615465,105068.0,144076.0,9039.0
1679518675624465,105080.0,144099.0,9073.0
1679518675634465,105068.0,144125.0,9041.0
1679518675645465,105104.0,144139.0,9043.0
1679518675655465,105108.0,144159.0,9070.0
1679518675665465,105114.0,144165.0,9064.0
1679518675675464,105095.0,144166.0,9075.0
1679518675684465,105118.0,144118.0,9060.0
1679518675695464,105111.0,144184.0,9007.0
1679518675705464,105106.0,144199.0,9064.0
1679518675714465,105162.0,144203.0,9037.0
1679518675724465,105196.0,144226.0,9005.0
1679518675735464,105230.0,144257.0,9028.0
1679518675745464,105223.0,144295.0,9047.0
1679518675754464,105223.0,144290.0,9056.0
1679518675765465,105204.0,144300.0,9058.0
1679518675775465,105220.0,144252.0,9058.0
1679518675785465,105218.0,144306.0,9052.0
1679518675794465,105234.0,144367.0,9047.0
1679518675805465,105238.0,144359.0,9052.0
1679518675814465,105249.0,144316.0,9041.0
1679518675825465,105262.0,144384.0,9052.0
1679518675834465,105272.0,144382.0,9041.0
1679518675845465,105273.0,144351.0,9044.0
1679518675855465,105267.0,144349.0,9046.0
1679518675865465,105271.0,144307.0,9054.0
1679518675874465,105263.0,144316.0,9042.0
1679518675886465,105261.0,144343.0,9052.0
1679518675894465,105259.0,144344.0,9032.0
1679518675905465,105245.0,144306.0,9026.0
1679518675915465,105238.0,144303.0,9040.0
1679518675924465,105221.0,144275.0,9053.0
1679518675935464,105198.0,144232.0,9039.0
1679518675945465,105185.0,144221.0,9054.0
1679518675955465,105144.0,144198.0,9062.0
1679518675964465,105146.0,144197.0,9030.0
1679518675975465,105127.0,144184.0,9049.0
1679518675987465,105126.0,144177.0,9069.0
1679518675995465,105118.0,144211.0,9075.0
1679518676004465,105108.0,144196.0,9061.0
1679518676014465,105117.0,144205.0,9057.0
1679518676025465,105137.0,144220.0,9053.0
1679518676035465,105130.0,144204.0,9078.0
1679518676044465,105138.0,144208.0,9072.0
1679518676055465,105162.0,144208.0,9044.0
1679518676065465,105194.0,144224.0,9062.0
1679518676075465,105184.0,144242.0,9064.0
1679518676084465,105192.0,144196.0,9060.0
1679518676095465,105192.0,144191.0,9055.0
1679518676104465,105141.0,144197.0,9049.0
1679518676115465,105166.0,144160.0,9042.0
1679518676124465,105170.0,144140.0,9028.0
1679518676134465,105163.0,144119.0,9025.0
1679518676144465,105137.0,144074.0,9033.0
1679518676155465,105169.0,144121.0,8999.0
1679518676165465,105200.0,144168.0,9037.0
1679518676175464,105231.0,144263.0,9046.0
1679518676184465,105287.0,144387.0,9042.0
1679518676195464,105310.0,144457.0,9037.0
1679518676205464,105298.0,144471.0,9024.0
1679518676214465,105290.0,144431.0,9036.0
1679518676224465,105291.0,144392.0,9045.0
1679518676235464,105289.0,144373.0,9043.0
1679518676245464,105284.0,144372.0,9052.0
1679518676254464,105281.0,144382.0,9051.0
1679518676265464,105276.0,144340.0,9050.0
1679518676274464,105283.0,144264.0,9044.0
1679518676285464,105272.0,144321.0,9046.0
1679518676294464,105275.0,144302.0,9049.0
1679518676305465,105282.0,144342.0,9039.0
1679518676314465,105319.0,144370.0,9005.0
1679518676325465,105294.0,144358.0,9046.0
1679518676334465,105277.0,144318.0,9046.0
1679518676344465,105337.0,144320.0,9001.0
1679518676354465,105283.0,144324.0,9045.0
1679518676365465,105302.0,144333.0,9049.0
1679518676374465,105311.0,144371.0,9015.0
1679518676384465,105347.0,144392.0,9012.0
1679518676395465,105357.0,144421.0,9041.0
1679518676405465,105369.0,144404.0,9042.0
1679518676415465,105361.0,144407.0,9049.0
1679518676424465,105362.0,144461.0,9052.0
1679518676435464,105350.0,144478.0,9052.0
1679518676444465,105293.0,144435.0,9062.0
1679518676455464,105308.0,144422.0,9037.0
1679518676464465,105330.0,144411.0,9030.0
1679518676474465,105303.0,144406.0,9013.0
1679518676485465,105286.0,144357.0,9041.0
1679518676495465,105277.0,144340.0,9062.0
1679518676504465,105245.0,144290.0,9040.0
1679518676514465,105242.0,144251.0,9055.0
1679518676524465,105215.0,144232.0,9062.0
1679518676535465,105197.0,144202.0,9049.0
1679518676544465,105194.0,144210.0,9056.0
1679518676554465,105191.0,144159.0,9056.0
1679518676564465,105204.0,144204.0,9036.0
1679518676575465,105229.0,144180.0,9028.0
1679518676584465,105244.0,144236.0,9056.0
1679518676594465,105259.0,144272.0,9049.0
1679518676605465,105302.0,144333.0,9040.0
1679518676614465,105323.0,144406.0,9050.0
1679518676624465,105350.0,144462.0,9053.0
1679518676634465,105387.0,144489.0,9031.0
1679518676645465,105470.0,144532.0,8987.0
1679518676654465,105474.0,144583.0,9014.0
1679518676665465,105539.0,144627.0,8982.0
1679518676674465,105553.0,144653.0,9016.0
1679518676685465,105539.0,144713.0,9022.0
1679518676695465,105522.0,144715.0,9032.0
1679518676705465,105567.0,144713.0,9027.0
1679518676715465,105530.0,144647.0,9020.0
1679518676724465,105489.0,144601.0,9036.0
1679518676735465,105435.0,144532.0,9045.0
1679518676745465,105435.0,144477.0,9039.0
1679518676754465,105380.0,144439.0,9049.0
1679518676764465,105360.0,144379.0,9043.0
1679518676775465,105360.0,144368.0,9047.0
1679518676785465,105356.0,144460.0,9033.0
1679518676795465,105380.0,144487.0,9048.0
1679518676804465,105387.0,144446.0,9035.0
1679518676815465,105367.0,144515.0,9060.0
1679518676824465,105337.0,144482.0,9050.0
1679518676834465,105376.0,144465.0,9041.0
1679518676844465,105373.0,144486.0,9029.0
1679518676855465,105380.0,144448.0,9033.0
1679518676864465,105374.0,144460.0,9040.0
1679518676874465,105326.0,144435.0,9053.0
1679518676884465,105343.0,144399.0,9055.0
1679518676896465,105357.0,144347.0,9050.0
1679518676904465,105343.0,144330.0,9044.0
1679518676915465,105322.0,144424.0,9056.0
1679518676924465,105354.0,144445.0,9045.0
1679518676935464,105347.0,144509.0,9054.0
1679518676944465,105386.0,144534.0,9054.0
1679518676955464,105425.0,144578.0,9053.0
1679518676964465,105428.0,144559.0,9022.0
1679518676974465,105417.0,144504.0,9012.0
1679518676985464,105406.0,144493.0,9051.0
1679518676996464,105395.0,144482.0,9060.0
1679518677004464,105380.0,144489.0,9051.0
1679518677014464,105405.0,144484.0,9050.0
1679518677025465,105424.0,144524.0,9050.0
1679518677035465,105404.0,144569.0,9056.0
1679518677044465,105417.0,144544.0,9060.0
1679518677054465,105388.0,144506.0,9061.0
1679518677064465,105360.0,144428.0,9066.0
1679518677075465,105327.0,144406.0,9027.0
1679518677084465,105325.0,144358.0,9038.0
1679518677096465,105324.0,144346.0,9040.0
1679518677105465,105317.0,144358.0,9076.0
1679518677114465,105299.0,144366.0,9068.0
1679518677124465,105313.0,144397.0,9051.0
1679518677134465,105316.0,144389.0,9058.0
1679518677145465,105287.0,144388.0,9067.0
1679518677154465,105284.0,144377.0,9059.0
1679518677165465,105288.0,144375.0,9065.0
1679518677174465,105284.0,144362.0,9053.0
1679518677184465,105300.0,144364.0,9043.0
1679518677197465,105279.0,144304.0,9061.0
1679518677205465,105280.0,144301.0,9068.0
1679518677215465,105254.0,144257.0,9075.0
1679518677224465,105252.0,144238.0,9060.0
1679518677235465,105234.0,144207.0,9075.0
1679518677245465,105236.0,144148.0,9070.0
1679518677254465,105179.0,144168.0,9078.0
1679518677264465,105225.0,144160.0,9040.0
1679518677274465,105236.0,144169.0,9048.0
1679518677285465,105250.0,144179.0,9074.0
1679518677294465,105257.0,144219.0,9069.0
1679518677304465,105279.0,144250.0,9072.0
1679518677315465,105301.0,144327.0,9075.0
1679518677324465,105325.0,144371.0,9067.0
1679518677334465,105302.0,144447.0,9088.0
1679518677344465,105308.0,144514.0,9089.0
1679518677355465,105357.0,144544.0,9083.0
1679518677364465,105386.0,144639.0,9076.0
1679518677374465,105358.0,144691.0,9123.0
1679518677384465,105392.0,144733.0,9105.0
1679518677395465,105458.0,144816.0,9082.0
1679518677404465,105473.0,144889.0,9126.0
1679518677415465,105481.0,144951.0,9097.0
1679518677424465,105524.0,144974.0,9121.0
1679518677434465,105563.0,145062.0,9120.0
1679518677445464,105576.0,145088.0,9170.0
1679518677455464,105583.0,145159.0,9162.0
1679518677464465,105573.0,145185.0,9188.0
1679518677474465,105574.0,145132.0,9190.0
1679518677485464,105544.0,145185.0,9189.0
1679518677495464,105544.0,145152.0,9187.0
1679518677504464,105533.0,145174.0,9189.0
1679518677514464,105532.0,145155.0,9176.0
1679518677524464,105526.0,145141.0,9209.0
1679518677535464,105516.0,145123.0,9208.0
1679518677544464,105503.0,145101.0,9207.0
1679518677555464,105509.0,145109.0,9203.0
1679518677564465,105511.0,145073.0,9202.0
1679518677574465,105527.0,145058.0,9199.0
1679518677584465,105544.0,145131.0,9193.0
1679518677595465,105569.0,145163.0,9205.0
1679518677604465,105572.0,145176.0,9193.0
1679518677615465,105623.0,145293.0,9198.0
1679518677624465,105623.0,145303.0,9198.0
1679518677634465,105649.0,145335.0,9198.0
1679518677644465,105691.0,145392.0,9201.0
1679518677655465,105680.0,145432.0,9191.0
1679518677665465,105729.0,145434.0,9183.0
1679518677674465,105784.0,145495.0,9176.0
1679518677684465,105767.0,145532.0,9185.0
1679518677695464,105811.0,145554.0,9159.0
1679518677704465,105870.0,145598.0,9158.0
1679518677714465,105903.0,145626.0,9148.0
1679518677724465,105926.0,145668.0,9169.0
1679518677734465,105973.0,145726.0,9149.0
1679518677745465,105994.0,145778.0,9166.0
1679518677754465,106017.0,145835.0,9167.0
1679518677764465,106038.0,145903.0,9165.0
1679518677775465,106073.0,145930.0,9158.0
1679518677785465,106081.0,145951.0,9166.0
1679518677794465,106108.0,145955.0,9168.0
1679518677804465,106095.0,145965.0,9164.0
1679518677815465,106096.0,145996.0,9171.0
1679518677824465,106103.0,146008.0,9160.0
1679518677834465,106083.0,146011.0,9176.0
1679518677844465,106081.0,146005.0,9170.0
1679518677855465,106116.0,146079.0,9175.0
1679518677864465,106091.0,146094.0,9176.0
1679518677874465,106102.0,146098.0,9177.0
1679518677884465,106154.0,146139.0,9170.0
1679518677894465,106157.0,146179.0,9186.0
1679518677904465,106140.0,146205.0,9178.0
1679518677915465,106192.0,146237.0,9166.0
1679518677924465,106229.0,146266.0,9147.0
1679518677934465,106247.0,146276.0,9150.0
1679518677944465,106249.0,146330.0,9165.0
1679518677955464,106228.0,146359.0,9184.0
1679518677964465,106232.0,146359.0,9173.0
1679518677974465,106287.0,146405.0,9165.0
1679518677984465,106269.0,146414.0,9177.0
1679518677995464,106307.0,146424.0,9170.0
1679518678004464,106339.0,146477.0,9145.0
1679518678014464,106356.0,146467.0,9158.0
1679518678025464,106374.0,146453.0,9159.0
1679518678035464,106386.0,146490.0,9145.0
1679518678044464,106375.0,146501.0,9159.0
1679518678054464,106393.0,146484.0,9150.0
1679518678065464,106397.0,146520.0,9166.0
1679518678075464,106397.0,146534.0,9163.0
1679518678083464,106419.0,146539.0,9154.0
1679518678094464,106439.0,146558.0,9143.0
1679518678105465,106450.0,146611.0,9163.0
1679518678114465,106448.0,146587.0,9161.0
1679518678124465,106458.0,146600.0,9160.0
1679518678134465,106462.0,146600.0,9164.0
1679518678144465,106455.0,146628.0,9155.0
1679518678155465,106469.0,146650.0,9152.0
1679518678164465,106478.0,146656.0,9130.0
1679518678174465,106477.0,146638.0,9118.0
1679518678184465,106434.0,146653.0,9171.0
1679518678195464,106466.0,146660.0,9141.0
1679518678205464,106499.0,146689.0,9132.0
1679518678214465,106447.0,146673.0,9166.0
1679518678225464,106488.0,146677.0,9166.0
1679518678234465,106490.0,146640.0,9160.0
1679518678245464,106481.0,146653.0,9154.0
1679518678254464,106489.0,146653.0,9162.0
1679518678264464,106493.0,146720.0,9164.0
1679518678274464,106497.0,146736.0,9158.0
1679518678285465,106489.0,146730.0,9157.0
1679518678294465,106464.0,146721.0,9158.0
1679518678304465,106493.0,146689.0,9163.0
1679518678314465,106543.0,146734.0,9162.0
1679518678325465,106496.0,146712.0,9172.0
1679518678334465,106504.0,146719.0,9159.0
1679518678344465,106471.0,146723.0,9169.0
1679518678354465,106459.0,146700.0,9161.0
1679518678365465,106487.0,146715.0,9150.0
1679518678373464,106508.0,146738.0,9135.0
1679518678384464,106512.0,146700.0,9145.0
1679518678395464,106513.0,146696.0,9147.0
1679518678404464,106513.0,146713.0,9159.0
1679518678415464,106515.0,146735.0,9128.0
1679518678424464,106490.0,146723.0,9161.0
1679518678434464,106509.0,146733.0,9153.0
1679518678444464,106508.0,146723.0,9157.0
1679518678455464,106503.0,146713.0,9163.0
1679518678464465,106512.0,146756.0,9154.0
1679518678474465,106499.0,146735.0,9153.0
1679518678484465,106509.0,146739.0,9160.0
1679518678495465,106525.0,146743.0,9165.0
1679518678505465,106519.0,146746.0,9156.0
1679518678514465,106502.0,146739.0,9150.0
1679518678524465,106455.0,146738.0,9166.0
1679518678535465,106481.0,146727.0,9154.0
1679518678544465,106480.0,146738.0,9167.0
1679518678554465,106476.0,146728.0,9168.0
1679518678564465,106507.0,146753.0,9149.0
1679518678575465,106473.0,146752.0,9160.0
1679518678583464,106474.0,146746.0,9168.0
1679518678594464,106495.0,146757.0,9136.0
1679518678605464,106467.0,146758.0,9169.0
1679518678614464,106496.0,146808.0,9162.0
1679518678623464,106523.0,146771.0,9162.0
1679518678634464,106519.0,146774.0,9145.0
1679518678645465,106505.0,146774.0,9168.0
1679518678655465,106511.0,146782.0,9180.0
1679518678664465,106436.0,146768.0,9184.0
1679518678674465,106480.0,146813.0,9148.0
1679518678684465,106490.0,146790.0,9149.0
1679518678695465,106483.0,146807.0,9165.0
1679518678706465,106453.0,146799.0,9163.0
1679518678714465,106463.0,146782.0,9213.0
1679518678724465,106473.0,146787.0,9151.0
1679518678734465,106478.0,146800.0,9140.0
1679518678744464,106476.0,146761.0,9145.0
1679518678754464,106480.0,146777.0,9129.0
1679518678765464,106486.0,146763.0,9153.0
1679518678774464,106493.0,146760.0,9163.0
1679518678784464,106479.0,146796.0,9145.0
1679518678794464,106493.0,146762.0,9152.0
1679518678804464,106497.0,146763.0,9164.0
1679518678814464,106490.0,146766.0,9131.0
1679518678825465,106476.0,146740.0,9180.0
1679518678834465,106482.0,146690.0,9153.0
1679518678844465,106484.0,146755.0,9169.0
1679518678854465,106469.0,146731.0,9166.0
1679518678864465,106471.0,146700.0,9167.0
1679518678874465,106450.0,146750.0,9164.0
1679518678884465,106480.0,146757.0,9128.0
1679518678894465,106491.0,146756.0,9125.0
1679518678904465,106473.0,146760.0,9132.0
1679518678915465,106477.0,146751.0,9144.0
1679518678924465,106461.0,146713.0,9174.0
1679518678934465,106456.0,146709.0,9162.0
1679518678945464,106461.0,146755.0,9180.0
1679518678954465,106463.0,146782.0,9168.0
1679518678964465,106453.0,146770.0,9154.0
1679518678974465,106465.0,146746.0,9170.0
1679518678985464,106456.0,146773.0,9169.0
1679518678994464,106442.0,146716.0,9154.0
1679518679004465,106457.0,146785.0,9176.0
1679518679014465,106458.0,146768.0,9159.0
1679518679025465,106452.0,146773.0,9157.0
1679518679034465,106422.0,146769.0,9170.0
1679518679044465,106425.0,146774.0,9167.0
1679518679054465,106449.0,146755.0,9165.0
1679518679064465,106430.0,146761.0,9177.0
1679518679074465,106411.0,146757.0,9166.0
1679518679084465,106436.0,146768.0,9152.0
1679518679094465,106442.0,146767.0,9149.0
1679518679104465,106449.0,146754.0,9166.0
1679518679115465,106443.0,146768.0,9131.0
1679518679124465,106441.0,146750.0,9167.0
1679518679134465,106452.0,146716.0,9174.0
1679518679144465,106445.0,146694.0,9165.0
1679518679155465,106431.0,146772.0,9189.0
1679518679165465,106431.0,146769.0,9170.0
1679518679174465,106420.0,146731.0,9167.0
1679518679184465,106424.0,146740.0,9169.0
1679518679195464,106437.0,146769.0,9164.0
1679518679205464,106433.0,146740.0,9178.0
1679518679214465,106435.0,146697.0,9166.0
1679518679224465,106381.0,146765.0,9168.0
1679518679235464,106417.0,146741.0,9174.0
1679518679244464,106432.0,146759.0,9178.0
1679518679254464,106421.0,146759.0,9170.0
1679518679264464,106403.0,146695.0,9168.0
1679518679275464,106406.0,146741.0,9184.0
1679518679284464,106425.0,146749.0,9167.0
1679518679294464,106405.0,146702.0,9172.0
1679518679304464,106421.0,146729.0,9186.0
1679518679314464,106420.0,146741.0,9180.0
1679518679324464,106374.0,146765.0,9173.0
1679518679334464,106389.0,146746.0,9187.0
1679518679344464,106362.0,146748.0,9181.0
1679518679354464,106392.0,146742.0,9174.0
1679518679364465,106395.0,146745.0,9149.0
1679518679374465,106400.0,146760.0,9149.0
1679518679384465,106393.0,146762.0,9179.0
1679518679394465,106393.0,146778.0,9177.0
1679518679404465,106367.0,146753.0,9173.0
1679518679415465,106368.0,146755.0,9189.0
1679518679424465,106350.0,146745.0,9187.0
1679518679434465,106358.0,146748.0,9157.0
1679518679444465,106370.0,146751.0,9178.0
1679518679455464,106353.0,146748.0,9187.0
1679518679464465,106360.0,146740.0,9173.0
1679518679474465,106334.0,146743.0,9188.0
1679518679484465,106298.0,146735.0,9179.0
1679518679495464,106328.0,146728.0,9169.0
1679518679503464,106330.0,146733.0,9157.0
1679518679514464,106360.0,146717.0,9135.0
1679518679525464,106356.0,146725.0,9177.0
1679518679534464,106358.0,146678.0,9174.0
1679518679544465,106364.0,146684.0,9170.0
1679518679554465,106351.0,146687.0,9158.0
1679518679565465,106345.0,146705.0,9177.0
1679518679574465,106357.0,146710.0,9169.0
1679518679584465,106354.0,146666.0,9169.0
1679518679594465,106359.0,146717.0,9161.0
1679518679605465,106358.0,146730.0,9168.0
1679518679614465,106357.0,146690.0,9172.0
1679518679624465,106354.0,146729.0,9134.0
1679518679634465,106360.0,146729.0,9167.0
1679518679644465,106331.0,146740.0,9179.0
1679518679654465,106322.0,146729.0,9173.0
1679518679665465,106333.0,146709.0,9164.0
1679518679673464,106338.0,146709.0,9143.0
1679518679684464,106349.0,146705.0,9148.0
1679518679694464,106341.0,146719.0,9145.0
1679518679705464,106359.0,146701.0,9155.0
1679518679715464,106303.0,146731.0,9172.0
1679518679724465,106342.0,146733.0,9162.0
1679518679734465,106323.0,146704.0,9179.0
1679518679745465,106308.0,146740.0,9174.0
1679518679753465,106305.0,146713.0,9171.0
1679518679764464,106331.0,146705.0,9148.0
1679518679774464,106325.0,146637.0,9170.0
1679518679785464,106315.0,146671.0,9169.0
1679518679794464,106313.0,146677.0,9177.0
1679518679804464,106320.0,146645.0,9162.0
1679518679816465,106313.0,146641.0,9161.0
1679518679825465,106317.0,146706.0,9203.0
1679518679833464,106265.0,146706.0,9169.0
1679518679844464,106284.0,146694.0,9168.0
1679518679854464,106291.0,146694.0,9146.0
1679518679864464,106285.0,146683.0,9154.0
1679518679873464,106312.0,146685.0,9124.0
1679518679884464,106322.0,146675.0,9147.0
1679518679894464,106257.0,146671.0,9175.0
1679518679905465,106312.0,146690.0,9134.0
1679518679914465,106316.0,146682.0,9153.0
1679518679924465,106288.0,146699.0,9176.0
1679518679934465,106305.0,146651.0,9157.0
1679518679945465,106309.0,146671.0,9160.0
1679518679954465,106292.0,146680.0,9166.0
1679518679964465,106266.0,146672.0,9174.0
1679518679974465,106241.0,146654.0,9178.0
1679518679984465,106296.0,146683.0,9170.0
1679518679994465,106278.0,146691.0,9162.0
1679518680004465,106249.0,146671.0,9169.0
1679518680014465,106293.0,146693.0,9166.0
1679518680024465,106288.0,146677.0,9166.0
1679518680034465,106288.0,146667.0,9157.0
1679518680044465,106268.0,146667.0,9171.0
1679518680054465,106269.0,146687.0,9154.0
1679518680064465,106285.0,146657.0,9145.0
1679518680074465,106239.0,146690.0,9174.0
1679518680084465,106285.0,146665.0,9161.0
1679518680094465,106244.0,146687.0,9150.0
1679518680104465,106269.0,146703.0,9169.0
1679518680114465,106234.0,146704.0,9183.0
1679518680124465,106213.0,146701.0,9182.0
1679518680134465,106259.0,146626.0,9169.0
1679518680144465,106228.0,146662.0,9168.0
1679518680154465,106233.0,146693.0,9185.0
1679518680165465,106233.0,146705.0,9185.0
1679518680174465,106231.0,146685.0,9165.0
1679518680184465,106221.0,146691.0,9157.0
1679518680194465,106228.0,146679.0,9176.0
1679518680205464,106242.0,146682.0,9151.0
1679518680214465,106221.0,146671.0,9159.0
1679518680224465,106233.0,146672.0,9172.0
1679518680234465,106190.0,146645.0,9165.0
1679518680245464,106233.0,146645.0,9145.0
1679518680253464,106186.0,146652.0,9173.0
1679518680264465,106187.0,146660.0,9165.0
1679518680274465,106201.0,146639.0,9162.0
1679518680285465,106211.0,146681.0,9163.0
1679518680293465,106216.0,146649.0,9151.0
1679518680304464,106205.0,146668.0,9163.0
1679518680314464,106209.0,146603.0,9154.0
1679518680325464,106214.0,146587.0,9158.0
1679518680333464,106208.0,146654.0,9159.0
1679518680344464,106196.0,146643.0,9163.0
1679518680354464,106209.0,146626.0,9153.0
1679518680365464,106199.0,146644.0,9151.0
1679518680373464,106183.0,146619.0,9156.0
1679518680384464,106204.0,146659.0,9149.0
1679518680394464,106190.0,146641.0,9150.0
1679518680405464,106182.0,146627.0,9168.0
1679518680414464,106192.0,146627.0,9156.0
1679518680424464,106188.0,146630.0,9156.0
1679518680434464,106124.0,146619.0,9152.0
1679518680444465,106164.0,146617.0,9157.0
1679518680454465,106169.0,146627.0,9124.0
1679518680464465,106174.0,146628.0,9149.0
1679518680474465,106168.0,146643.0,9153.0
1679518680485465,106141.0,146614.0,9162.0
1679518680494465,106172.0,146574.0,9154.0
1679518680504465,106166.0,146554.0,9155.0
1679518680514465,106160.0,146563.0,9148.0
1679518680524465,106161.0,146614.0,9161.0
1679518680534465,106119.0,146604.0,9157.0
1679518680544465,106153.0,146618.0,9117.0
1679518680554465,106149.0,146635.0,9159.0
1679518680564465,106117.0,146611.0,9149.0
1679518680574465,106105.0,146594.0,9157.0
1679518680584465,106139.0,146621.0,9159.0
1679518680594465,106093.0,146597.0,9165.0
1679518680604465,106120.0,146587.0,9135.0
1679518680614465,106127.0,146621.0,9160.0
1679518680624465,106103.0,146607.0,9151.0
1679518680634465,106150.0,146581.0,9145.0
1679518680644465,106136.0,146612.0,9148.0
1679518680654465,106136.0,146603.0,9142.0
1679518680665465,106122.0,146601.0,9160.0
1679518680674465,106124.0,146577.0,9143.0
1679518680684465,106134.0,146558.0,9152.0
1679518680694465,106122.0,146535.0,9140.0
1679518680705464,106115.0,146568.0,9153.0
1679518680714465,106123.0,146559.0,9146.0
1679518680724465,106115.0,146531.0,9146.0
1679518680734465,106124.0,146500.0,9146.0
1679518680745464,106109.0,146540.0,9141.0
1679518680753464,106106.0,146574.0,9147.0
1679518680764464,106091.0,146533.0,9143.0
1679518680774464,106100.0,146545.0,9148.0
1679518680785464,106108.0,146585.0,9142.0
1679518680793464,106100.0,146547.0,9137.0
1679518680804465,106105.0,146584.0,9149.0
1679518680814465,106099.0,146600.0,9150.0
1679518680824465,106088.0,146584.0,9143.0
1679518680833465,106097.0,146607.0,9158.0
1679518680844465,106045.0,146589.0,9154.0
1679518680854465,106078.0,146622.0,9152.0
1679518680865465,106052.0,146576.0,9159.0
1679518680873464,106070.0,146552.0,9154.0
1679518680884464,106041.0,146588.0,9143.0
1679518680894464,106053.0,146573.0,9150.0
1679518680904464,106057.0,146600.0,9146.0
1679518680914464,106055.0,146603.0,9141.0
1679518680924464,106033.0,146601.0,9155.0
1679518680933464,106068.0,146589.0,9115.0
1679518680944464,106066.0,146567.0,9135.0
1679518680955464,106055.0,146567.0,9136.0
1679518680964464,106043.0,146551.0,9137.0
1679518680974464,106054.0,146579.0,9136.0
1679518680984465,106044.0,146552.0,9132.0
1679518680994465,106040.0,146537.0,9129.0
1679518681004465,106048.0,146562.0,9097.0
1679518681014465,106036.0,146536.0,9108.0
1679518681024465,106046.0,146543.0,9134.0
1679518681034465,106042.0,146555.0,9125.0
1679518681044465,106042.0,146553.0,9122.0
1679518681054465,106010.0,146545.0,9130.0
1679518681064465,106024.0,146504.0,9125.0
1679518681074465,106038.0,146535.0,9130.0
1679518681084465,106024.0,146560.0,9119.0
1679518681094465,106024.0,146533.0,9123.0
1679518681104465,106017.0,146532.0,9131.0
1679518681114465,106031.0,146489.0,9131.0
1679518681124465,106028.0,146487.0,9121.0
1679518681133465,106025.0,146537.0,9114.0
1679518681144465,105998.0,146532.0,9135.0
1679518681154465,105981.0,146535.0,9134.0
1679518681165465,105983.0,146518.0,9135.0
1679518681174465,105991.0,146536.0,9102.0
1679518681184465,106002.0,146501.0,9116.0
1679518681194465,106004.0,146494.0,9122.0
1679518681204465,105998.0,146534.0,9127.0
1679518681214465,106007.0,146515.0,9121.0
1679518681225465,106004.0,146520.0,9123.0
1679518681234465,105991.0,146485.0,9108.0
1679518681245465,106000.0,146485.0,9121.0
1679518681253465,106000.0,146482.0,9116.0
1679518681264464,105986.0,146507.0,9125.0
1679518681274464,106002.0,146510.0,9122.0
1679518681284464,105989.0,146534.0,9119.0
1679518681293465,105963.0,146516.0,9136.0
1679518681304464,105979.0,146515.0,9119.0
1679518681314464,105983.0,146512.0,9114.0
1679518681326465,105951.0,146518.0,9121.0
1679518681333464,105965.0,146478.0,9120.0
1679518681344465,105967.0,146493.0,9114.0
1679518681354465,105964.0,146500.0,9085.0
1679518681364465,105949.0,146497.0,9116.0
1679518681373465,105912.0,146486.0,9123.0
1679518681384465,105958.0,146502.0,9085.0
1679518681394465,105949.0,146448.0,9122.0
1679518681404465,105951.0,146487.0,9106.0
1679518681414465,105948.0,146486.0,9107.0
1679518681424465,105962.0,146487.0,9117.0
1679518681433465,105957.0,146493.0,9107.0
1679518681444465,105971.0,146482.0,9068.0
1679518681454465,105965.0,146489.0,9090.0
1679518681464465,105970.0,146465.0,9098.0
1679518681473465,105955.0,146474.0,9114.0
1679518681484465,105959.0,146489.0,9069.0
1679518681495464,105951.0,146466.0,9099.0
1679518681504464,105955.0,146471.0,9108.0
1679518681513465,105948.0,146476.0,9088.0
1679518681524465,105959.0,146469.0,9110.0
1679518681534465,105942.0,146466.0,9112.0
1679518681543465,105935.0,146491.0,9080.0
1679518681554465,105946.0,146494.0,9109.0
1679518681564465,105936.0,146512.0,9111.0
1679518681574465,105926.0,146513.0,9095.0
1679518681583465,105916.0,146493.0,9105.0
1679518681594465,105906.0,146525.0,9118.0
1679518681604465,105902.0,146501.0,9109.0
1679518681614465,105912.0,146462.0,9110.0
1679518681623465,105903.0,146454.0,9098.0
1679518681634465,105894.0,146479.0,9107.0
1679518681644465,105899.0,146502.0,9096.0
1679518681654465,105898.0,146490.0,9096.0
1679518681664465,105887.0,146468.0,9093.0
1679518681674465,105903.0,146497.0,9097.0
1679518681684465,105904.0,146503.0,9088.0
1679518681694465,105877.0,146429.0,9097.0
1679518681704465,105903.0,146477.0,9096.0
1679518681714465,105884.0,146469.0,9096.0
1679518681724465,105893.0,146394.0,9091.0
1679518681734465,105884.0,146430.0,9089.0
1679518681744465,105829.0,146460.0,9095.0
1679518681754465,105885.0,146436.0,9095.0
1679518681764465,105878.0,146389.0,9089.0
1679518681774465,105869.0,146392.0,9084.0
1679518681784465,105860.0,146381.0,9077.0
1679518681794465,105885.0,146424.0,9088.0
1679518681804465,105877.0,146441.0,9074.0
1679518681814465,105863.0,146402.0,9087.0
1679518681824465,105864.0,146419.0,9091.0
1679518681834465,105868.0,146429.0,9076.0
1679518681843465,105828.0,146447.0,9073.0
1679518681854465,105828.0,146443.0,9084.0
1679518681864465,105813.0,146413.0,9087.0
1679518681873465,105844.0,146419.0,9056.0
1679518681883465,105860.0,146425.0,9053.0
1679518681894465,105869.0,146417.0,9062.0
1679518681904465,105811.0,146414.0,9085.0
1679518681914465,105831.0,146415.0,9079.0
1679518681923465,105856.0,146435.0,9035.0
1679518681934465,105846.0,146422.0,9074.0
1679518681944465,105853.0,146421.0,9059.0
1679518681954465,105851.0,146400.0,9054.0
1679518681963465,105836.0,146419.0,9053.0
1679518681974465,105835.0,146395.0,9047.0
1679518681984465,105843.0,146383.0,9063.0
1679518681994464,105847.0,146393.0,9062.0
1679518682004464,105816.0,146407.0,9070.0
1679518682014464,105837.0,146329.0,9072.0
1679518682024464,105832.0,146331.0,9070.0
1679518682034464,105822.0,146369.0,9070.0
1679518682044464,105826.0,146400.0,9026.0
1679518682053465,105800.0,146393.0,9055.0
1679518682064465,105820.0,146405.0,9017.0
1679518682074465,105830.0,146384.0,9041.0
1679518682084465,105804.0,146404.0,9076.0
1679518682093465,105764.0,146370.0,9068.0
1679518682104465,105797.0,146387.0,9054.0
1679518682114465,105816.0,146333.0,9071.0
1679518682124465,105801.0,146347.0,9062.0
1679518682135465,105797.0,146381.0,9069.0
1679518682144465,105815.0,146340.0,9070.0
1679518682154465,105779.0,146395.0,9064.0
1679518682164465,105759.0,146378.0,9060.0
1679518682173465,105750.0,146354.0,9066.0
1679518682184465,105806.0,146366.0,9067.0
1679518682194465,105787.0,146374.0,9044.0
1679518682204465,105765.0,146368.0,9059.0
1679518682213465,105773.0,146363.0,9017.0
1679518682224465,105807.0,146348.0,9040.0
1679518682234465,105771.0,146358.0,9056.0
1679518682244465,105800.0,146371.0,9016.0
1679518682253465,105775.0,146349.0,9062.0
1679518682264465,105792.0,146375.0,9033.0
1679518682274465,105788.0,146378.0,9057.0
1679518682284465,105777.0,146394.0,9062.0
1679518682294465,105773.0,146392.0,9051.0
1679518682304465,105773.0,146398.0,9056.0
1679518682313465,105752.0,146417.0,9060.0
1679518682324465,105776.0,146392.0,9020.0
1679518682334465,105770.0,146371.0,9024.0
1679518682343465,105771.0,146378.0,9055.0
1679518682354465,105759.0,146321.0,9052.0
1679518682364465,105753.0,146371.0,9043.0
1679518682373465,105749.0,146372.0,9044.0
1679518682383465,105756.0,146362.0,9042.0
1679518682394465,105722.0,146361.0,9048.0
1679518682404465,105705.0,146355.0,9041.0
1679518682414465,105712.0,146356.0,9049.0
1679518682423465,105716.0,146333.0,9030.0
1679518682434465,105754.0,146342.0,9011.0
1679518682444465,105746.0,146363.0,9034.0
1679518682454465,105768.0,146347.0,9002.0
1679518682463465,105758.0,146330.0,9029.0
1679518682474465,105743.0,146333.0,9017.0
1679518682483465,105750.0,146339.0,9003.0
1679518682494464,105760.0,146336.0,9006.0
1679518682504464,105760.0,146336.0,9034.0
1679518682514464,105765.0,146333.0,9038.0
1679518682524464,105739.0,146332.0,9031.0
1679518682534464,105740.0,146316.0,9026.0
1679518682544464,105759.0,146285.0,9031.0
1679518682553465,105728.0,146360.0,9016.0
1679518682564464,105714.0,146349.0,9029.0
1679518682574464,105704.0,146324.0,9030.0
1679518682583464,105723.0,146320.0,9000.0
1679518682593464,105703.0,146372.0,9020.0
1679518682604465,105708.0,146331.0,9027.0
1679518682614465,105720.0,146331.0,8999.0
1679518682623465,105732.0,146339.0,9014.0
1679518682633465,105720.0,146337.0,9013.0
1679518682644465,105689.0,146328.0,9023.0
1679518682654465,105671.0,146255.0,9015.0
1679518682664465,105726.0,146337.0,9019.0
1679518682673465,105726.0,146322.0,9011.0
1679518682684465,105709.0,146347.0,9023.0
1679518682694465,105665.0,146319.0,9020.0
1679518682704465,105707.0,146301.0,8992.0
1679518682713465,105693.0,146323.0,9023.0
1679518682724465,105678.0,146307.0,9024.0
1679518682733465,105688.0,146316.0,8990.0
1679518682744464,105731.0,146323.0,8981.0
1679518682754464,105719.0,146288.0,9016.0
1679518682764464,105721.0,146237.0,9011.0
1679518682774464,105720.0,146299.0,9015.0
1679518682784465,105710.0,146282.0,9012.0
1679518682793465,105706.0,146256.0,9013.0
1679518682804465,105702.0,146308.0,9013.0
1679518682813465,105687.0,146304.0,8988.0
1679518682824465,105716.0,146295.0,8973.0
1679518682833465,105672.0,146295.0,9014.0
1679518682843465,105704.0,146293.0,8978.0
1679518682854465,105714.0,146313.0,9006.0
1679518682864465,105712.0,146290.0,8999.0
1679518682874465,105698.0,146290.0,9005.0
1679518682883465,105706.0,146261.0,8998.0
1679518682894465,105712.0,146294.0,9010.0
1679518682904465,105704.0,146292.0,9001.0
1679518682915465,105688.0,146247.0,9012.0
1679518682923464,105706.0,146288.0,8994.0
1679518682934464,105691.0,146287.0,9006.0
1679518682944464,105690.0,146261.0,9002.0
1679518682954464,105694.0,146300.0,8995.0
1679518682963465,105680.0,146307.0,8998.0
1679518682973465,105691.0,146306.0,9010.0
1679518682984465,105689.0,146315.0,8957.0
1679518682994464,105691.0,146311.0,8989.0
1679518683003465,105688.0,146306.0,9008.0
1679518683013465,105650.0,146337.0,9008.0
1679518683024464,105634.0,146301.0,8996.0
1679518683034464,105633.0,146293.0,8989.0
1679518683043465,105674.0,146303.0,8948.0
1679518683054464,105671.0,146310.0,8965.0
1679518683064464,105672.0,146233.0,8985.0
1679518683074464,105649.0,146252.0,8979.0
1679518683083464,105648.0,146287.0,8986.0
1679518683094464,105666.0,146313.0,8982.0
1679518683103464,105665.0,146306.0,8980.0
1679518683114464,105668.0,146281.0,8974.0
1679518683123464,105625.0,146280.0,8984.0
1679518683133464,105639.0,146271.0,8984.0
1679518683144465,105646.0,146285.0,8946.0
1679518683154465,105677.0,146322.0,8967.0
1679518683164465,105667.0,146273.0,8953.0
1679518683173465,105672.0,146252.0,8946.0
1679518683183465,105663.0,146238.0,8966.0
1679518683194465,105670.0,146275.0,8970.0
1679518683204465,105669.0,146278.0,8956.0
1679518683214465,105624.0,146264.0,8976.0
1679518683223465,105654.0,146233.0,8979.0
1679518683234465,105655.0,146273.0,8981.0
1679518683245464,105655.0,146255.0,8964.0
1679518683253464,105654.0,146282.0,8964.0
1679518683263464,105650.0,146243.0,8955.0
1679518683274464,105670.0,146260.0,8947.0
1679518683284464,105629.0,146256.0,8967.0
1679518683293464,105628.0,146278.0,8947.0
1679518683303464,105667.0,146262.0,8937.0
1679518683314464,105670.0,146259.0,8933.0
1679518683324465,105654.0,146268.0,8966.0
1679518683333465,105663.0,146263.0,8962.0
1679518683345465,105644.0,146277.0,8947.0
1679518683354465,105669.0,146273.0,8961.0
1679518683364465,105648.0,146250.0,8965.0
1679518683373465,105615.0,146277.0,8965.0
1679518683383465,105615.0,146263.0,8959.0
1679518683394465,105653.0,146264.0,8918.0
1679518683403465,105611.0,146272.0,8961.0
1679518683414465,105644.0,146260.0,8948.0
1679518683423465,105658.0,146259.0,8924.0
1679518683434465,105632.0,146255.0,8956.0
1679518683443465,105655.0,146255.0,8947.0
1679518683454465,105664.0,146282.0,8920.0
1679518683464465,105672.0,146244.0,8935.0
1679518683473465,105661.0,146251.0,8943.0
1679518683483465,105658.0,146254.0,8959.0
1679518683494465,105665.0,146234.0,8930.0
1679518683504465,105670.0,146245.0,8952.0
1679518683514465,105666.0,146247.0,8951.0
1679518683523465,105628.0,146240.0,8960.0
1679518683534465,105643.0,146243.0,8918.0
1679518683543465,105660.0,146241.0,8930.0
1679518683554465,105654.0,146258.0,8953.0
1679518683563465,105650.0,146239.0,8933.0
1679518683574465,105646.0,146272.0,8917.0
1679518683583465,105630.0,146235.0,8948.0
1679518683593465,105653.0,146257.0,8918.0
1679518683603465,105659.0,146257.0,8945.0
1679518683614465,105666.0,146249.0,8906.0
1679518683624465,105660.0,146240.0,8956.0
1679518683633465,105647.0,146266.0,8954.0
1679518683643465,105649.0,146250.0,8933.0
1679518683654465,105643.0,146256.0,8928.0
1679518683664465,105629.0,146251.0,8949.0
1679518683673465,105627.0,146272.0,8953.0
1679518683684465,105635.0,146302.0,8942.0
1679518683694465,105624.0,146296.0,8954.0
1679518683704465,105640.0,146244.0,8949.0
1679518683713465,105631.0,146244.0,8935.0
1679518683723465,105636.0,146283.0,8941.0
1679518683734465,105650.0,146281.0,8893.0
1679518683744464,105651.0,146265.0,8932.0
1679518683753465,105652.0,146278.0,8922.0
1679518683764464,105639.0,146282.0,8927.0
1679518683774464,105650.0,146225.0,8927.0
1679518683784464,105650.0,146238.0,8920.0
1679518683793465,105638.0,146228.0,8922.0
1679518683804464,105635.0,146267.0,8938.0
1679518683813465,105649.0,146260.0,8929.0
1679518683824464,105642.0,146228.0,8913.0
1679518683833464,105654.0,146240.0,8929.0
1679518683844464,105661.0,146258.0,8908.0
1679518683853464,105638.0,146204.0,8908.0
1679518683864465,105656.0,146246.0,8921.0
1679518683873465,105619.0,146237.0,8921.0
1679518683884465,105642.0,146229.0,8921.0
1679518683893465,105639.0,146188.0,8912.0
1679518683903465,105647.0,146227.0,8907.0
1679518683914465,105654.0,146246.0,8882.0
1679518683923465,105649.0,146242.0,8904.0
1679518683934465,105662.0,146215.0,8886.0
1679518683943465,105640.0,146240.0,8884.0
1679518683954465,105647.0,146219.0,8886.0
1679518683964465,105646.0,146193.0,8918.0
1679518683973465,105640.0,146159.0,8912.0
1679518683984465,105636.0,146202.0,8910.0
1679518683994464,105634.0,146214.0,8919.0
1679518684003465,105638.0,146238.0,8898.0
1679518684013465,105648.0,146257.0,8904.0
1679518684024464,105618.0,146231.0,8901.0
1679518684033465,105599.0,146226.0,8904.0
1679518684043465,105640.0,146213.0,8879.0
1679518684053465,105641.0,146229.0,8868.0
1679518684064465,105633.0,146234.0,8855.0
1679518684073465,105651.0,146209.0,8894.0
1679518684083465,105655.0,146205.0,8898.0
1679518684093465,105636.0,146168.0,8893.0
1679518684104465,105644.0,146223.0,8899.0
1679518684113465,105651.0,146221.0,8887.0
1679518684123465,105640.0,146219.0,8899.0
1679518684133465,105612.0,146214.0,8902.0
1679518684144465,105626.0,146216.0,8888.0
1679518684154465,105623.0,146205.0,8885.0
1679518684164465,105662.0,146249.0,8891.0
1679518684174465,105640.0,146175.0,8905.0
1679518684183465,105656.0,146163.0,8897.0
1679518684194465,105640.0,146175.0,8900.0
1679518684204465,105640.0,146201.0,8895.0
1679518684213465,105661.0,146163.0,8892.0
1679518684223465,105649.0,146201.0,8884.0
1679518684234465,105667.0,146250.0,8893.0
1679518684244464,105650.0,146212.0,8892.0
1679518684255464,105668.0,146182.0,8900.0
1679518684263464,105646.0,146158.0,8885.0
1679518684274464,105651.0,146213.0,8897.0
1679518684284464,105657.0,146161.0,8899.0
1679518684293464,105639.0,146184.0,8887.0
1679518684303464,105655.0,146190.0,8902.0
1679518684314464,105634.0,146233.0,8890.0
1679518684324464,105636.0,146260.0,8899.0
1679518684333464,105653.0,146212.0,8897.0
1679518684343464,105645.0,146200.0,8881.0
1679518684356464,105633.0,146228.0,8879.0
1679518684364464,105645.0,146194.0,8885.0
1679518684373464,105641.0,146187.0,8876.0
1679518684383464,105632.0,146206.0,8876.0
1679518684394464,105638.0,146222.0,8878.0
1679518684404465,105638.0,146234.0,8863.0
1679518684414465,105625.0,146236.0,8875.0
1679518684423465,105607.0,146211.0,8878.0
1679518684433465,105642.0,146210.0,8846.0
1679518684444465,105661.0,146206.0,8845.0
1679518684454465,105642.0,146206.0,8874.0
1679518684463465,105652.0,146247.0,8854.0
1679518684473465,105646.0,146204.0,8840.0
1679518684484465,105634.0,146214.0,8864.0
1679518684493465,105623.0,146204.0,8850.0
1679518684503465,105664.0,146206.0,8836.0
1679518684513465,105618.0,146212.0,8868.0
1679518684524464,105647.0,146196.0,8853.0
1679518684533465,105645.0,146196.0,8823.0
1679518684543465,105622.0,146211.0,8863.0
1679518684553465,105644.0,146201.0,8853.0
1679518684563465,105674.0,146223.0,8824.0
1679518684574464,105674.0,146193.0,8864.0
1679518684583465,105664.0,146184.0,8863.0
1679518684593465,105671.0,146153.0,8846.0
1679518684603465,105686.0,146193.0,8854.0
1679518684614465,105677.0,146212.0,8858.0
1679518684623465,105672.0,146185.0,8857.0
1679518684633465,105657.0,146225.0,8858.0
1679518684644465,105628.0,146248.0,8858.0
1679518684653465,105635.0,146217.0,8847.0
1679518684664465,105658.0,146227.0,8856.0
1679518684673465,105688.0,146224.0,8838.0
1679518684683465,105698.0,146211.0,8858.0
1679518684694465,105693.0,146223.0,8853.0
1679518684704465,105693.0,146230.0,8852.0
1679518684713465,105695.0,146211.0,8858.0
1679518684723465,105694.0,146240.0,8854.0
1679518684734465,105708.0,146226.0,8852.0
1679518684744464,105725.0,146188.0,8836.0
1679518684753465,105706.0,146223.0,8844.0
1679518684763465,105711.0,146264.0,8846.0
1679518684774465,105695.0,146266.0,8840.0
1679518684783465,105725.0,146268.0,8841.0
1679518684793465,105732.0,146280.0,8847.0
1679518684803465,105706.0,146275.0,8843.0
1679518684814465,105738.0,146267.0,8845.0
1679518684824465,105735.0,146245.0,8849.0
1679518684833465,105734.0,146262.0,8840.0
1679518684843465,105750.0,146281.0,8840.0
1679518684854465,105733.0,146292.0,8841.0
1679518684863465,105750.0,146251.0,8848.0
1679518684873465,105741.0,146299.0,8844.0
1679518684883465,105730.0,146299.0,8843.0
1679518684894465,105716.0,146316.0,8845.0
1679518684903465,105758.0,146303.0,8838.0
1679518684914465,105737.0,146316.0,8851.0
1679518684923465,105707.0,146299.0,8844.0
1679518684933465,105758.0,146337.0,8842.0
1679518684943465,105734.0,146333.0,8851.0
1679518684954465,105703.0,146352.0,8843.0
1679518684963465,105752.0,146283.0,8844.0
1679518684973465,105754.0,146360.0,8834.0
1679518684983465,105706.0,146361.0,8843.0
1679518684994464,105762.0,146349.0,8841.0
1679518685003465,105745.0,146334.0,8840.0
1679518685013465,105761.0,146310.0,8844.0
1679518685023465,105768.0,146346.0,8826.0
1679518685034464,105766.0,146343.0,8829.0
1679518685043465,105759.0,146325.0,8829.0
1679518685053465,105768.0,146295.0,8835.0
1679518685063465,105770.0,146296.0,8819.0
1679518685074464,105783.0,146320.0,8819.0
1679518685083464,105793.0,146358.0,8825.0
1679518685093464,105785.0,146373.0,8819.0
1679518685103464,105751.0,146341.0,8817.0
1679518685114464,105797.0,146346.0,8824.0
1679518685123465,105806.0,146354.0,8810.0
1679518685133465,105773.0,146360.0,8822.0
1679518685143465,105804.0,146300.0,8804.0
1679518685154465,105791.0,146314.0,8810.0
1679518685164465,105816.0,146340.0,8816.0
1679518685173465,105813.0,146346.0,8822.0
1679518685183465,105817.0,146311.0,8813.0
1679518685194465,105832.0,146320.0,8801.0
1679518685204465,105821.0,146345.0,8803.0
1679518685213465,105823.0,146350.0,8819.0
1679518685223465,105840.0,146367.0,8803.0
1679518685234465,105824.0,146349.0,8816.0
1679518685243465,105832.0,146376.0,8806.0
1679518685253465,105833.0,146380.0,8806.0
1679518685264464,105829.0,146372.0,8811.0
1679518685273465,105836.0,146390.0,8800.0
1679518685283465,105832.0,146374.0,8786.0
1679518685293465,105838.0,146382.0,8765.0
1679518685303465,105847.0,146362.0,8797.0
1679518685313465,105863.0,146360.0,8803.0
1679518685323465,105811.0,146383.0,8812.0
1679518685333465,105839.0,146395.0,8786.0
1679518685343465,105866.0,146385.0,8769.0
1679518685354465,105849.0,146382.0,8796.0
1679518685365465,105868.0,146410.0,8803.0
1679518685373464,105876.0,146420.0,8836.0
1679518685383464,105856.0,146429.0,8778.0
1679518685393464,105890.0,146395.0,8775.0
1679518685403464,105889.0,146408.0,8811.0
1679518685414464,105904.0,146424.0,8749.0
1679518685423464,105910.0,146433.0,8789.0
1679518685433464,105902.0,146427.0,8792.0
1679518685443464,105910.0,146434.0,8763.0
1679518685454464,105917.0,146427.0,8773.0
1679518685463464,105914.0,146430.0,8806.0
1679518685473464,105904.0,146439.0,8776.0
1679518685484465,105904.0,146460.0,8802.0
1679518685494465,105914.0,146409.0,8803.0
1679518685502465,105911.0,146474.0,8770.0
1679518685513465,105927.0,146468.0,8776.0
1679518685523465,105931.0,146462.0,8800.0
1679518685534464,105938.0,146412.0,8799.0
1679518685543465,105934.0,146423.0,8791.0
1679518685553465,105936.0,146469.0,8803.0
1679518685563465,105953.0,146406.0,8780.0
1679518685574464,105938.0,146449.0,8793.0
1679518685582464,105886.0,146484.0,8803.0
1679518685593464,105928.0,146486.0,8802.0
1679518685603464,105966.0,146487.0,8779.0
1679518685614464,105970.0,146506.0,8761.0
1679518685623464,105915.0,146514.0,8808.0
1679518685633464,105940.0,146543.0,8772.0
1679518685643464,105954.0,146550.0,8780.0
1679518685654464,105924.0,146534.0,8791.0
1679518685663465,105944.0,146531.0,8763.0
1679518685673465,105952.0,146534.0,8776.0
1679518685683465,105959.0,146519.0,8782.0
1679518685693465,105959.0,146509.0,8777.0
1679518685703465,105963.0,146516.0,8794.0
1679518685713465,105957.0,146521.0,8756.0
1679518685724465,105962.0,146522.0,8787.0
1679518685733465,105962.0,146514.0,8781.0
1679518685744464,105954.0,146516.0,8784.0
1679518685753465,105960.0,146497.0,8776.0
1679518685763465,105982.0,146488.0,8771.0
1679518685773465,105986.0,146464.0,8778.0
1679518685784464,105971.0,146523.0,8766.0
1679518685792464,105963.0,146524.0,8784.0
1679518685803464,105953.0,146540.0,8769.0
1679518685813464,105952.0,146527.0,8768.0
1679518685824464,105989.0,146498.0,8746.0
1679518685832464,105945.0,146512.0,8762.0
1679518685843465,105990.0,146497.0,8768.0
1679518685853465,105971.0,146506.0,8748.0
1679518685864465,106000.0,146535.0,8764.0
1679518685873465,105972.0,146530.0,8771.0
1679518685883465,106019.0,146513.0,8731.0
1679518685893465,105955.0,146516.0,8767.0
1679518685903465,105999.0,146548.0,8729.0
1679518685913465,106010.0,146529.0,8744.0
1679518685923465,106020.0,146520.0,8759.0
1679518685934465,106025.0,146538.0,8777.0
1679518685943465,106018.0,146524.0,8766.0
1679518685954465,106022.0,146533.0,8767.0
1679518685963465,106018.0,146517.0,8759.0
1679518685973465,106029.0,146521.0,8761.0
1679518685983465,106029.0,146562.0,8750.0
1679518685994464,106020.0,146551.0,8754.0
1679518686002464,105984.0,146547.0,8759.0
1679518686013464,106015.0,146561.0,8766.0
1679518686023465,106003.0,146550.0,8767.0
1679518686034465,106032.0,146555.0,8735.0
1679518686042465,106055.0,146594.0,8759.0
1679518686053465,106057.0,146589.0,8749.0
1679518686063465,106026.0,146575.0,8759.0
1679518686074464,106073.0,146579.0,8756.0
1679518686082464,106059.0,146582.0,8758.0
1679518686093464,106069.0,146622.0,8742.0
1679518686103464,106065.0,146589.0,8745.0
1679518686113464,106036.0,146623.0,8754.0
1679518686123464,106054.0,146570.0,8759.0
1679518686133464,106071.0,146618.0,8751.0
1679518686143464,106053.0,146615.0,8756.0
1679518686154464,106073.0,146597.0,8731.0
1679518686163464,106090.0,146613.0,8742.0
1679518686173464,106064.0,146622.0,8763.0
1679518686183464,106113.0,146588.0,8737.0
1679518686193464,106087.0,146614.0,8735.0
1679518686203465,106099.0,146610.0,8723.0
1679518686213465,106111.0,146614.0,8705.0
1679518686223465,106100.0,146623.0,8751.0
1679518686233465,106117.0,146654.0,8744.0
1679518686243465,106104.0,146627.0,8759.0
1679518686253465,106131.0,146622.0,8758.0
1679518686263465,106118.0,146628.0,8757.0
1679518686274464,106118.0,146600.0,8761.0
1679518686283465,106091.0,146586.0,8748.0
1679518686293465,106122.0,146618.0,8752.0
1679518686303465,106136.0,146651.0,8759.0
1679518686313465,106131.0,146644.0,8749.0
1679518686323464,106136.0,146658.0,8745.0
1679518686333464,106099.0,146653.0,8757.0
1679518686343464,106146.0,146653.0,8750.0
1679518686353464,106145.0,146660.0,8758.0
1679518686363464,106102.0,146651.0,8759.0
1679518686373464,106150.0,146674.0,8739.0
1679518686382465,106142.0,146655.0,8727.0
1679518686392465,106166.0,146665.0,8718.0
1679518686402465,106143.0,146645.0,8742.0
1679518686413465,106153.0,146649.0,8763.0
1679518686422465,106158.0,146680.0,8759.0
1679518686432465,106167.0,146666.0,8731.0
1679518686442465,106156.0,146671.0,8758.0
1679518686452465,106147.0,146691.0,8760.0
1679518686462465,106160.0,146691.0,8748.0
1679518686472465,106161.0,146702.0,8761.0
1679518686482465,106181.0,146734.0,8742.0
1679518686493465,106138.0,146717.0,8776.0
1679518686501464,106141.0,146737.0,8755.0
1679518686512464,106162.0,146730.0,8741.0
1679518686522464,106145.0,146723.0,8750.0
1679518686533464,106153.0,146717.0,8741.0
1679518686541464,106134.0,146712.0,8745.0
1679518686552464,106161.0,146708.0,8743.0
1679518686563465,106162.0,146715.0,8727.0
1679518686574465,106151.0,146702.0,8745.0
1679518686582465,106210.0,146713.0,8733.0
1679518686593464,106158.0,146702.0,8728.0
1679518686603464,106128.0,146699.0,8738.0
1679518686613464,106154.0,146692.0,8731.0
1679518686623464,106127.0,146668.0,8722.0
1679518686633464,106166.0,146651.0,8701.0
1679518686643464,106146.0,146678.0,8731.0
1679518686653464,106147.0,146666.0,8735.0
1679518686663464,106173.0,146671.0,8698.0
1679518686673464,106139.0,146658.0,8727.0
1679518686683464,106149.0,146673.0,8716.0
1679518686693464,106190.0,146652.0,8730.0
1679518686703464,106187.0,146677.0,8709.0
1679518686713464,106193.0,146662.0,8711.0
1679518686722464,106184.0,146662.0,8729.0
1679518686733464,106181.0,146666.0,8706.0
1679518686744465,106181.0,146675.0,8711.0
1679518686753465,106186.0,146657.0,8712.0
1679518686762465,106148.0,146668.0,8730.0
1679518686773465,106183.0,146666.0,8723.0
1679518686783465,106184.0,146672.0,8712.0
1679518686793465,106184.0,146669.0,8727.0
1679518686803465,106186.0,146679.0,8718.0
1679518686813465,106175.0,146706.0,8729.0
1679518686823465,106153.0,146682.0,8726.0
1679518686833465,106168.0,146692.0,8726.0
1679518686842465,106188.0,146668.0,8685.0
1679518686853465,106184.0,146683.0,8682.0
1679518686863465,106211.0,146689.0,8692.0
1679518686873465,106214.0,146664.0,8716.0
1679518686883465,106213.0,146690.0,8711.0
1679518686893465,106214.0,146685.0,8714.0
1679518686904465,106217.0,146668.0,8726.0
1679518686913465,106211.0,146633.0,8726.0
1679518686923465,106218.0,146652.0,8712.0
1679518686933465,106215.0,146687.0,8728.0
1679518686943465,106222.0,146717.0,8726.0
1679518686953465,106231.0,146655.0,8717.0
1679518686963465,106230.0,146685.0,8713.0
1679518686975465,106240.0,146695.0,8716.0
1679518686983465,106224.0,146691.0,8732.0
1679518686993465,106238.0,146688.0,8715.0
1679518687003465,106250.0,146696.0,8698.0
1679518687013465,106241.0,146676.0,8717.0
1679518687023465,106241.0,146701.0,8726.0
1679518687033465,106240.0,146656.0,8717.0
1679518687043465,106231.0,146696.0,8716.0
1679518687053465,106260.0,146691.0,8730.0
1679518687063465,106248.0,146707.0,8713.0
1679518687075465,106248.0,146702.0,8711.0
1679518687083464,106266.0,146735.0,8744.0
1679518687092465,106263.0,146735.0,8713.0
1679518687103465,106242.0,146745.0,8729.0
1679518687113465,106251.0,146716.0,8718.0
1679518687123465,106276.0,146721.0,8721.0
1679518687133465,106264.0,146701.0,8721.0
1679518687142465,106265.0,146676.0,8721.0
1679518687153465,106279.0,146704.0,8702.0
1679518687164465,106280.0,146718.0,8729.0
1679518687173465,106269.0,146721.0,8716.0
1679518687183465,106277.0,146688.0,8723.0
1679518687193465,106276.0,146743.0,8710.0
1679518687204465,106273.0,146757.0,8708.0
1679518687212464,106277.0,146751.0,8728.0
1679518687223464,106282.0,146750.0,8718.0
1679518687233464,106241.0,146761.0,8719.0
1679518687243464,106289.0,146759.0,8726.0
1679518687252464,106284.0,146741.0,8715.0
1679518687263464,106250.0,146740.0,8717.0
1679518687273464,106284.0,146739.0,8721.0
1679518687283465,106287.0,146734.0,8716.0
1679518687292465,106296.0,146728.0,8700.0
1679518687303465,106291.0,146750.0,8713.0
1679518687313465,106248.0,146749.0,8724.0
1679518687323465,106281.0,146754.0,8704.0
1679518687332465,106287.0,146714.0,8721.0
1679518687343465,106295.0,146762.0,8714.0
1679518687353465,106284.0,146763.0,8725.0
1679518687363465,106278.0,146788.0,8732.0
1679518687373465,106290.0,146805.0,8721.0
1679518687383465,106277.0,146804.0,8729.0
1679518687392465,106246.0,146811.0,8730.0
1679518687403465,106282.0,146796.0,8716.0
1679518687413465,106271.0,146793.0,8689.0
1679518687423465,106244.0,146791.0,8723.0
1679518687432465,106259.0,146772.0,8724.0
1679518687443465,106278.0,146768.0,8679.0
1679518687453465,106255.0,146787.0,8720.0
1679518687463465,106243.0,146767.0,8722.0
1679518687473465,106247.0,146775.0,8698.0
1679518687483465,106278.0,146774.0,8705.0
1679518687493465,106260.0,146765.0,8694.0
1679518687503465,106301.0,146752.0,8666.0
1679518687512465,106287.0,146743.0,8712.0
1679518687523465,106288.0,146786.0,8700.0
1679518687533465,106267.0,146744.0,8715.0
1679518687543465,106276.0,146754.0,8714.0
1679518687552465,106256.0,146726.0,8706.0
1679518687563465,106289.0,146721.0,8675.0
1679518687573464,106285.0,146751.0,8706.0
1679518687582465,106262.0,146738.0,8704.0
1679518687593464,106320.0,146724.0,8695.0
1679518687603464,106310.0,146762.0,8702.0
1679518687613464,106305.0,146734.0,8698.0
1679518687623464,106311.0,146711.0,8698.0
1679518687633464,106314.0,146738.0,8705.0
1679518687643465,106310.0,146725.0,8708.0
1679518687653465,106314.0,146738.0,8703.0
1679518687663465,106320.0,146744.0,8674.0
1679518687673465,106331.0,146748.0,8692.0
1679518687683465,106330.0,146760.0,8700.0
1679518687693465,106325.0,146744.0,8708.0
1679518687703465,106319.0,146733.0,8695.0
1679518687713465,106312.0,146704.0,8712.0
1679518687723465,106319.0,146762.0,8708.0
1679518687733465,106305.0,146748.0,8708.0
1679518687743465,106320.0,146701.0,8705.0
1679518687752465,106322.0,146753.0,8695.0
1679518687763465,106309.0,146764.0,8690.0
1679518687773465,106277.0,146755.0,8702.0
1679518687783465,106331.0,146766.0,8696.0
1679518687792465,106320.0,146750.0,8674.0
1679518687803465,106334.0,146724.0,8683.0
1679518687813465,106343.0,146753.0,8700.0
1679518687823465,106331.0,146746.0,8708.0
1679518687832465,106326.0,146733.0,8702.0
1679518687843465,106350.0,146763.0,8654.0
1679518687853465,106337.0,146744.0,8677.0
1679518687863465,106353.0,146756.0,8704.0
1679518687873465,106355.0,146791.0,8710.0
1679518687883465,106338.0,146777.0,8699.0
1679518687892465,106358.0,146766.0,8684.0
1679518687903465,106362.0,146745.0,8685.0
1679518687914465,106355.0,146763.0,8701.0
1679518687922464,106363.0,146757.0,8705.0
1679518687933464,106355.0,146761.0,8708.0
1679518687943464,106349.0,146768.0,8706.0
1679518687953464,106339.0,146756.0,8704.0
1679518687962464,106364.0,146761.0,8690.0
1679518687973464,106358.0,146767.0,8706.0
1679518687983464,106355.0,146778.0,8707.0
1679518687993464,106359.0,146743.0,8709.0
1679518688002465,106354.0,146732.0,8694.0
1679518688012465,106345.0,146753.0,8724.0
1679518688023465,106362.0,146764.0,8677.0
1679518688033465,106369.0,146773.0,8699.0
1679518688043465,106372.0,146769.0,8688.0
1679518688052465,106362.0,146769.0,8715.0
1679518688063465,106368.0,146784.0,8697.0
1679518688073464,106341.0,146803.0,8706.0
1679518688082465,106379.0,146814.0,8705.0
1679518688092465,106329.0,146781.0,8690.0
1679518688103464,106382.0,146784.0,8665.0
1679518688113464,106376.0,146759.0,8689.0
1679518688123464,106383.0,146773.0,8701.0
1679518688132465,106358.0,146791.0,8715.0
1679518688143464,106385.0,146773.0,8686.0
1679518688153464,106374.0,146771.0,8704.0
1679518688163464,106384.0,146776.0,8709.0
1679518688173464,106395.0,146769.0,8687.0
1679518688183465,106389.0,146778.0,8703.0
1679518688192465,106381.0,146764.0,8706.0
1679518688203465,106387.0,146775.0,8700.0
1679518688213465,106395.0,146790.0,8719.0
1679518688223465,106380.0,146793.0,8714.0
1679518688232465,106351.0,146776.0,8714.0
1679518688243465,106391.0,146793.0,8673.0
1679518688252465,106387.0,146791.0,8697.0
1679518688263465,106398.0,146780.0,8675.0
1679518688273465,106405.0,146778.0,8717.0
1679518688283465,106390.0,146805.0,8716.0
1679518688293465,106398.0,146826.0,8721.0
1679518688302465,106386.0,146772.0,8719.0
1679518688313465,106371.0,146827.0,8719.0
1679518688323464,106380.0,146820.0,8725.0
1679518688333464,106381.0,146814.0,8713.0
1679518688342465,106375.0,146835.0,8705.0
1679518688353464,106361.0,146823.0,8717.0
1679518688363465,106370.0,146811.0,8723.0
1679518688373465,106352.0,146839.0,8722.0
1679518688382465,106366.0,146862.0,8710.0
1679518688393465,106378.0,146843.0,8714.0
1679518688403465,106365.0,146825.0,8708.0
1679518688413465,106352.0,146811.0,8683.0
1679518688422465,106375.0,146833.0,8668.0
1679518688432465,106378.0,146790.0,8713.0
1679518688443465,106385.0,146809.0,8658.0
1679518688454465,106385.0,146786.0,8680.0
1679518688462464,106376.0,146795.0,8715.0
1679518688472464,106369.0,146811.0,8673.0
1679518688483464,106395.0,146799.0,8694.0
1679518688493464,106390.0,146793.0,8707.0
1679518688502464,106383.0,146778.0,8705.0
1679518688513464,106391.0,146762.0,8700.0
1679518688523464,106390.0,146742.0,8693.0
1679518688533464,106378.0,146781.0,8712.0
1679518688542465,106385.0,146750.0,8705.0
1679518688552465,106378.0,146743.0,8699.0
1679518688563465,106343.0,146803.0,8693.0
1679518688573464,106350.0,146783.0,8715.0
1679518688582465,106392.0,146779.0,8675.0
1679518688592465,106431.0,146800.0,8694.0
1679518688603464,106377.0,146801.0,8696.0
1679518688613464,106356.0,146795.0,8706.0
1679518688623464,106363.0,146788.0,8698.0
1679518688632465,106380.0,146796.0,8669.0
1679518688643464,106399.0,146789.0,8680.0
1679518688652464,106350.0,146798.0,8692.0
1679518688663464,106403.0,146805.0,8675.0
1679518688672464,106403.0,146803.0,8690.0
1679518688683464,106397.0,146792.0,8695.0
1679518688693464,106385.0,146823.0,8697.0
1679518688703464,106389.0,146796.0,8705.0
1679518688713464,106399.0,146808.0,8702.0
1679518688723465,106408.0,146799.0,8711.0
1679518688732465,106402.0,146793.0,8722.0
1679518688743465,106377.0,146795.0,8691.0
1679518688752465,106392.0,146803.0,8676.0
1679518688763465,106424.0,146794.0,8682.0
1679518688773465,106418.0,146766.0,8711.0
1679518688783465,106406.0,146753.0,8709.0
1679518688792465,106397.0,146841.0,8700.0
1679518688803465,106365.0,146823.0,8712.0
1679518688812465,106346.0,146793.0,8707.0
1679518688823464,106403.0,146815.0,8679.0
1679518688832465,106361.0,146810.0,8719.0
1679518688842465,106402.0,146811.0,8679.0
1679518688852465,106412.0,146799.0,8685.0
1679518688863464,106378.0,146808.0,8711.0
1679518688873464,106390.0,146803.0,8699.0
1679518688884464,106416.0,146811.0,8667.0
1679518688892464,106361.0,146817.0,8714.0
1679518688903465,106431.0,146798.0,8695.0
1679518688913465,106413.0,146810.0,8711.0
1679518688922465,106424.0,146829.0,8702.0
1679518688932465,106406.0,146828.0,8699.0
1679518688943465,106381.0,146825.0,8716.0
1679518688953465,106414.0,146798.0,8709.0
1679518688963465,106416.0,146794.0,8720.0
1679518688972465,106427.0,146776.0,8709.0
1679518688985465,106419.0,146816.0,8714.0
1679518688993465,106419.0,146788.0,8711.0
1679518689002465,106426.0,146853.0,8712.0
1679518689012465,106380.0,146846.0,8715.0
1679518689023465,106413.0,146831.0,8721.0
1679518689033465,106427.0,146835.0,8691.0
1679518689042465,106411.0,146842.0,8725.0
1679518689052465,106372.0,146832.0,8719.0
1679518689063465,106435.0,146857.0,8679.0
1679518689072465,106417.0,146847.0,8718.0
1679518689082465,106394.0,146845.0,8724.0
1679518689092465,106424.0,146842.0,8684.0
1679518689103464,106443.0,146848.0,8674.0
1679518689113464,106439.0,146838.0,8703.0
1679518689123464,106453.0,146850.0,8713.0
1679518689133464,106442.0,146829.0,8700.0
1679518689142465,106446.0,146840.0,8715.0
1679518689152464,106433.0,146861.0,8719.0
1679518689163464,106426.0,146876.0,8725.0
1679518689172464,106412.0,146859.0,8721.0
1679518689182464,106451.0,146882.0,8689.0
1679518689193464,106455.0,146860.0,8701.0
1679518689203464,106447.0,146839.0,8718.0
1679518689213464,106457.0,146839.0,8715.0
1679518689222464,106470.0,146875.0,8725.0
1679518689233464,106468.0,146892.0,8721.0
1679518689243464,106460.0,146846.0,8718.0
1679518689252464,106468.0,146914.0,8724.0
1679518689262465,106465.0,146890.0,8715.0
1679518689272465,106465.0,146878.0,8725.0
1679518689283465,106477.0,146914.0,8708.0
1679518689292465,106485.0,146932.0,8718.0
1679518689302465,106474.0,146920.0,8717.0
1679518689313465,106478.0,146976.0,8729.0
1679518689323464,106478.0,146962.0,8731.0
1679518689332465,106491.0,146985.0,8724.0
1679518689342465,106477.0,146990.0,8742.0
1679518689353464,106488.0,147008.0,8724.0
1679518689362465,106494.0,147005.0,8712.0
1679518689373464,106491.0,147026.0,8720.0
1679518689382465,106462.0,147000.0,8729.0
1679518689392465,106458.0,146998.0,8727.0
1679518689402464,106520.0,147017.0,8688.0
1679518689413464,106532.0,147011.0,8688.0
1679518689423464,106544.0,147070.0,8721.0
1679518689432464,106567.0,147071.0,8702.0
1679518689443465,106575.0,147080.0,8719.0
1679518689453465,106575.0,147084.0,8711.0
1679518689462465,106604.0,147125.0,8676.0
1679518689472465,106606.0,147114.0,8692.0
1679518689482465,106601.0,147153.0,8709.0
1679518689493465,106604.0,147133.0,8709.0
1679518689502465,106623.0,147139.0,8685.0
1679518689512465,106610.0,147130.0,8709.0
1679518689522465,106591.0,147131.0,8695.0
1679518689533465,106608.0,147130.0,8682.0
1679518689542465,106607.0,147123.0,8713.0
1679518689552465,106601.0,147133.0,8705.0
1679518689563465,106587.0,147118.0,8725.0
1679518689573464,106567.0,147117.0,8723.0
1679518689582465,106542.0,147090.0,8713.0
1679518689592465,106536.0,147068.0,8720.0
1679518689603464,106552.0,147137.0,8727.0
1679518689612465,106563.0,147158.0,8723.0
1679518689623465,106553.0,147150.0,8713.0
1679518689632465,106489.0,147079.0,8718.0
1679518689643465,106477.0,146961.0,8715.0
1679518689652465,106406.0,146870.0,8723.0
1679518689662465,106336.0,146732.0,8719.0
1679518689672465,106244.0,146540.0,8703.0
1679518689683465,106153.0,146343.0,8716.0
1679518689692465,106063.0,146136.0,8721.0
1679518689703465,105994.0,145965.0,8723.0
1679518689712465,105920.0,145773.0,8728.0
1679518689723465,105813.0,145636.0,8729.0
1679518689732465,105735.0,145508.0,8758.0
1679518689743465,105654.0,145382.0,8758.0
1679518689752465,105528.0,145193.0,8774.0
1679518689762465,105453.0,145039.0,8786.0
1679518689772465,105422.0,144913.0,8796.0
1679518689783465,105555.0,144876.0,8803.0
1679518689792465,105543.0,144733.0,8813.0
1679518689802465,105508.0,144568.0,8820.0
1679518689812465,105430.0,144394.0,8808.0
1679518689823464,105391.0,144272.0,8841.0
1679518689832465,105341.0,144161.0,8838.0
1679518689842465,105291.0,144144.0,8865.0
1679518689852465,105261.0,144066.0,8819.0
1679518689862465,105260.0,144057.0,8829.0
1679518689873464,105243.0,144046.0,8837.0
1679518689882465,105236.0,144093.0,8847.0
1679518689892465,105245.0,144152.0,8845.0
1679518689903464,105247.0,144266.0,8863.0
1679518689913464,105279.0,144372.0,8870.0
1679518689922464,105332.0,144564.0,8885.0
1679518689932464,105359.0,144734.0,8879.0
1679518689943464,105392.0,144830.0,8904.0
1679518689953464,105386.0,144931.0,8903.0
1679518689962464,105389.0,144960.0,8900.0
1679518689972464,105360.0,144958.0,8912.0
1679518689983465,105368.0,145011.0,8931.0
1679518689993465,105364.0,145058.0,8944.0
1679518690002465,105388.0,145132.0,8951.0
1679518690012465,105397.0,145183.0,8970.0
1679518690022465,105405.0,145258.0,8972.0
1679518690033465,105405.0,145303.0,8954.0
1679518690041464,105439.0,145376.0,8948.0
1679518690052464,105484.0,145455.0,8952.0
1679518690062464,105488.0,145532.0,8969.0
1679518690073464,105558.0,145613.0,8927.0
1679518690081464,105583.0,145622.0,8960.0
1679518690092464,105592.0,145788.0,8970.0
1679518690103464,105650.0,145918.0,8957.0
1679518690112464,105645.0,145948.0,9001.0
1679518690123464,105618.0,145950.0,9004.0
1679518690132464,105637.0,146099.0,9031.0
1679518690143464,105685.0,146538.0,9108.0
1679518690152464,105808.0,146840.0,9181.0
1679518690163465,105777.0,146968.0,9185.0
1679518690172465,105718.0,146846.0,9184.0
1679518690183465,105630.0,146664.0,9147.0
1679518690193465,105558.0,146517.0,9130.0
1679518690203465,105508.0,146437.0,9130.0
1679518690212465,105489.0,146434.0,9143.0
1679518690222465,105474.0,146445.0,9155.0
1679518690232465,105470.0,146526.0,9170.0
1679518690243465,105515.0,146655.0,9209.0
1679518690252465,105564.0,146838.0,9245.0
1679518690262465,105605.0,147050.0,9283.0
1679518690272465,105683.0,147221.0,9314.0
1679518690283465,105721.0,147392.0,9326.0
1679518690293465,105757.0,147501.0,9340.0
1679518690302465,105780.0,147586.0,9333.0
1679518690312465,105802.0,147670.0,9323.0
1679518690323464,105785.0,147688.0,9331.0
1679518690332465,105779.0,147699.0,9341.0
1679518690342465,105755.0,147687.0,9347.0
1679518690352465,105725.0,147694.0,9366.0
1679518690363465,105737.0,147676.0,9368.0
1679518690373465,105714.0,147681.0,9378.0
1679518690382465,105703.0,147688.0,9381.0
1679518690393465,105691.0,147700.0,9360.0
1679518690403465,105646.0,147680.0,9331.0
1679518690413465,105691.0,147700.0,9338.0
1679518690422465,105639.0,147701.0,9304.0
1679518690432465,105595.0,147680.0,9297.0
1679518690443465,105576.0,147682.0,9273.0
1679518690452465,105542.0,147659.0,9256.0
1679518690462465,105478.0,147620.0,9258.0
1679518690472465,105441.0,147552.0,9247.0
1679518690482465,105395.0,147510.0,9222.0
1679518690494465,105348.0,147489.0,9221.0
1679518690502465,105368.0,147452.0,9228.0
1679518690512465,105360.0,147434.0,9205.0
1679518690522465,105351.0,147427.0,9196.0
1679518690533465,105348.0,147404.0,9189.0
1679518690542465,105357.0,147477.0,9187.0
1679518690552465,105343.0,147508.0,9187.0
1679518690562465,105357.0,147485.0,9177.0
1679518690572465,105374.0,147554.0,9167.0
1679518690582465,105376.0,147559.0,9155.0
1679518690592465,105354.0,147553.0,9173.0
1679518690602465,105349.0,147578.0,9166.0
1679518690613464,105359.0,147600.0,9163.0
1679518690623464,105347.0,147624.0,9148.0
1679518690632465,105344.0,147604.0,9144.0
1679518690642465,105347.0,147617.0,9155.0
1679518690653464,105338.0,147638.0,9154.0
1679518690662464,105336.0,147597.0,9157.0
1679518690672464,105309.0,147660.0,9162.0
1679518690682464,105318.0,147664.0,9159.0
1679518690693464,105298.0,147613.0,9152.0
1679518690702465,105301.0,147651.0,9153.0
1679518690712465,105281.0,147648.0,9144.0
1679518690722465,105290.0,147627.0,9156.0
1679518690733465,105285.0,147647.0,9169.0
1679518690743465,105277.0,147666.0,9166.0
1679518690752465,105270.0,147633.0,9173.0
1679518690762465,105247.0,147612.0,9179.0
1679518690773465,105246.0,147574.0,9189.0
1679518690782465,105228.0,147613.0,9195.0
1679518690792465,105207.0,147617.0,9214.0
1679518690802465,105194.0,147547.0,9214.0
1679518690812465,105161.0,147579.0,9228.0
1679518690822465,105163.0,147591.0,9227.0
1679518690832465,105165.0,147618.0,9223.0
1679518690842465,105148.0,147578.0,9214.0
1679518690852465,105117.0,147568.0,9226.0
1679518690862465,105109.0,147527.0,9224.0
1679518690873464,105130.0,147555.0,9220.0
1679518690882465,105095.0,147516.0,9220.0
1679518690892465,105093.0,147519.0,9222.0
1679518690902465,105108.0,147493.0,9215.0
1679518690913465,105092.0,147476.0,9213.0
1679518690922465,105088.0,147518.0,9192.0
1679518690932465,105103.0,147484.0,9219.0
1679518690942465,105097.0,147490.0,9204.0
1679518690953465,105071.0,147498.0,9227.0
1679518690962465,105084.0,147497.0,9214.0
1679518690972465,105058.0,147492.0,9238.0
1679518690982465,104990.0,147467.0,9219.0
1679518690993465,104988.0,147369.0,9190.0
1679518691001464,104959.0,147303.0,9143.0
1679518691012464,104962.0,147327.0,9131.0
1679518691022464,104998.0,147381.0,9174.0
1679518691032464,105022.0,147410.0,9212.0
1679518691041464,105009.0,147436.0,9219.0
1679518691052464,105007.0,147477.0,9220.0
1679518691062465,105011.0,147491.0,9210.0
1679518691073464,104975.0,147496.0,9227.0
1679518691081464,104974.0,147410.0,9185.0
1679518691092464,104965.0,147406.0,9186.0
1679518691102464,104957.0,147417.0,9150.0
1679518691113464,104954.0,147364.0,9164.0
1679518691122464,104947.0,147372.0,9143.0
1679518691132464,104955.0,147398.0,9166.0
1679518691142464,104974.0,147393.0,9149.0
1679518691153464,104985.0,147454.0,9155.0
1679518691162464,104986.0,147504.0,9152.0
1679518691172464,105007.0,147534.0,9160.0
1679518691182464,105016.0,147562.0,9144.0
1679518691193464,104985.0,147546.0,9130.0
1679518691202464,105012.0,147535.0,9114.0
1679518691212464,105001.0,147511.0,9081.0
1679518691222464,104998.0,147530.0,9068.0
1679518691232464,105019.0,147491.0,9048.0
1679518691243465,105012.0,147492.0,9050.0
1679518691252465,105002.0,147514.0,9039.0
1679518691262465,104995.0,147493.0,9029.0
1679518691272465,105001.0,147451.0,8976.0
1679518691282465,104986.0,147429.0,9006.0
1679518691292465,104967.0,147409.0,9007.0
1679518691302465,104979.0,147377.0,8968.0
1679518691312465,104974.0,147323.0,8915.0
1679518691322465,104986.0,147359.0,8894.0
1679518691332465,105000.0,147292.0,8874.0
1679518691341465,104987.0,147247.0,8887.0
1679518691352465,104999.0,147238.0,8833.0
1679518691363464,104994.0,147225.0,8847.0
1679518691373464,105010.0,147237.0,8845.0
1679518691382465,105017.0,147243.0,8829.0
1679518691392465,105031.0,147234.0,8809.0
1679518691403464,105051.0,147182.0,8762.0
1679518691412464,105082.0,147181.0,8747.0
1679518691422465,105086.0,147208.0,8739.0
1679518691432465,105064.0,147159.0,8726.0
1679518691443465,105049.0,147113.0,8730.0
1679518691452465,105031.0,147039.0,8725.0
1679518691461465,104986.0,147043.0,8739.0
1679518691472465,104976.0,147032.0,8738.0
1679518691483465,104934.0,147034.0,8777.0
1679518691492465,104905.0,147026.0,8793.0
1679518691502465,104899.0,147014.0,8808.0
1679518691512465,104875.0,147075.0,8816.0
1679518691522465,104843.0,147087.0,8827.0
1679518691532465,104825.0,147052.0,8824.0
1679518691542465,104810.0,147031.0,8797.0
1679518691551465,104818.0,147024.0,8814.0
1679518691562465,104808.0,146991.0,8783.0
1679518691573464,104802.0,146977.0,8807.0
1679518691582465,104805.0,147029.0,8828.0
1679518691591465,104783.0,147026.0,8808.0
1679518691602465,104785.0,147046.0,8837.0
1679518691612465,104781.0,147064.0,8852.0
1679518691623465,104739.0,147103.0,8858.0
1679518691631465,104745.0,147144.0,8870.0
1679518691642465,104786.0,147179.0,8831.0
1679518691652464,104773.0,147197.0,8862.0
1679518691662464,104767.0,147159.0,8870.0
1679518691672464,104748.0,147162.0,8879.0
1679518691682464,104730.0,147132.0,8881.0
1679518691692464,104707.0,147119.0,8886.0
1679518691703464,104714.0,147174.0,8912.0
1679518691711464,104714.0,147194.0,8899.0
1679518691722464,104636.0,147128.0,8911.0
1679518691732464,104593.0,147048.0,8898.0
1679518691742464,104574.0,146974.0,8883.0
1679518691751464,104562.0,146923.0,8861.0
1679518691762464,104558.0,146892.0,8863.0
1679518691772464,104494.0,146887.0,8870.0
1679518691782465,104537.0,146882.0,8829.0
1679518691791465,104536.0,146874.0,8830.0
1679518691802465,104503.0,146870.0,8859.0
1679518691812465,104498.0,146892.0,8843.0
1679518691822465,104548.0,146878.0,8858.0
1679518691831465,104553.0,146871.0,8825.0
1679518691842465,104560.0,146869.0,8853.0
1679518691852465,104584.0,146888.0,8835.0
1679518691862465,104586.0,146922.0,8816.0
1679518691873464,104644.0,146925.0,8797.0
1679518691882465,104648.0,146931.0,8797.0
1679518691892465,104619.0,146917.0,8811.0
1679518691903464,104605.0,146958.0,8825.0
1679518691913464,104598.0,146988.0,8829.0
1679518691921464,104561.0,146936.0,8842.0
1679518691932464,104531.0,146935.0,8828.0
1679518691942464,104549.0,146928.0,8827.0
1679518691952464,104497.0,146934.0,8874.0
1679518691961465,104516.0,146958.0,8880.0
1679518691972465,104539.0,147025.0,8885.0
1679518691982465,104484.0,147108.0,8941.0
1679518691992465,104537.0,147221.0,8953.0
1679518692001465,104577.0,147317.0,8957.0
1679518692012465,104572.0,147336.0,9030.0
1679518692022465,104550.0,147383.0,9028.0
1679518692032465,104518.0,147377.0,9028.0
1679518692041465,104457.0,147310.0,9029.0
1679518692052465,104368.0,147261.0,9033.0
1679518692062465,104318.0,147212.0,9014.0
1679518692072465,104269.0,147176.0,9019.0
1679518692081465,104229.0,147112.0,9003.0
1679518692092465,104176.0,147063.0,8980.0
1679518692102465,104075.0,147017.0,9013.0
1679518692112465,104050.0,146970.0,9006.0
1679518692123464,104039.0,146969.0,9016.0
1679518692132465,103984.0,146948.0,9028.0
1679518692142465,103971.0,146980.0,9049.0
1679518692152465,103947.0,146973.0,9064.0
1679518692163465,103924.0,147055.0,9086.0
1679518692172465,103867.0,147045.0,9093.0
1679518692182465,103815.0,147045.0,9108.0
1679518692192465,103790.0,147040.0,9111.0
1679518692202465,103804.0,147071.0,9114.0
1679518692212465,103809.0,147147.0,9095.0
1679518692221465,103799.0,147142.0,9138.0
1679518692232465,103750.0,147100.0,9133.0
1679518692242465,103704.0,147100.0,9150.0
1679518692252465,103655.0,147068.0,9102.0
1679518692262465,103627.0,147019.0,9148.0
1679518692272465,103608.0,147055.0,9185.0
1679518692282465,103586.0,147100.0,9174.0
1679518692291465,103570.0,147133.0,9213.0
1679518692301465,103528.0,147108.0,9263.0
1679518692312465,103466.0,147125.0,9257.0
1679518692323465,103358.0,147023.0,9299.0
1679518692331465,103292.0,146965.0,9318.0
1679518692342465,103260.0,146987.0,9317.0
1679518692352465,103181.0,146914.0,9307.0
1679518692362465,103125.0,146934.0,9335.0
1679518692372465,103055.0,146927.0,9341.0
1679518692381465,103034.0,146934.0,9349.0
1679518692392465,103012.0,146933.0,9310.0
1679518692402464,102952.0,146869.0,9317.0
1679518692412464,102920.0,146833.0,9292.0
1679518692422464,102896.0,146871.0,9341.0
1679518692432464,102954.0,147090.0,9389.0
1679518692442464,102998.0,147275.0,9429.0
1679518692452464,103099.0,147472.0,9485.0
1679518692462464,103195.0,147732.0,9516.0
1679518692472464,103209.0,147865.0,9538.0
1679518692482464,103164.0,147790.0,9513.0
1679518692492464,103068.0,147692.0,9466.0
1679518692502465,102952.0,147578.0,9437.0
1679518692512465,102918.0,147509.0,9410.0
1679518692522465,102910.0,147498.0,9408.0
1679518692532465,102895.0,147623.0,9393.0
1679518692541465,102938.0,147853.0,9437.0
1679518692552465,103004.0,148113.0,9447.0
1679518692561465,103081.0,148318.0,9484.0
1679518692572465,103145.0,148508.0,9487.0
1679518692581465,103149.0,148714.0,9528.0
1679518692592465,103232.0,148840.0,9495.0
1679518692601465,103259.0,148964.0,9523.0
1679518692612465,103333.0,149358.0,9568.0
1679518692623464,103566.0,149857.0,9641.0
1679518692632465,103755.0,150283.0,9666.0
1679518692642465,103877.0,150561.0,9667.0
1679518692652464,103973.0,150749.0,9650.0
1679518692662464,104004.0,150761.0,9586.0
1679518692671465,103983.0,150623.0,9489.0
1679518692682465,103925.0,150503.0,9436.0
1679518692692465,103961.0,150572.0,9434.0
1679518692702465,104090.0,150892.0,9453.0
1679518692711465,104266.0,151202.0,9501.0
1679518692722465,104370.0,151354.0,9525.0
1679518692732465,104424.0,151415.0,9493.0
1679518692742465,104443.0,151417.0,9428.0
1679518692752465,104452.0,151308.0,9347.0
1679518692761465,104370.0,151108.0,9257.0
1679518692772465,104272.0,150858.0,9158.0
1679518692782465,104224.0,150729.0,9117.0
1679518692791465,104208.0,150682.0,9064.0
1679518692801465,104198.0,150621.0,9047.0
1679518692812465,104167.0,150434.0,8941.0
1679518692822465,104063.0,150167.0,8868.0
1679518692831465,104016.0,149932.0,8786.0
1679518692842465,103974.0,149853.0,8738.0
1679518692852465,103950.0,149778.0,8717.0
1679518692862465,103968.0,149855.0,8705.0
1679518692872465,103997.0,149934.0,8709.0
1679518692882465,104034.0,149986.0,8698.0
1679518692892465,104098.0,149993.0,8666.0
1679518692902465,104216.0,150164.0,8606.0
1679518692912465,104433.0,150264.0,8503.0
1679518692922465,104746.0,150484.0,8412.0
1679518692932465,105051.0,150626.0,8312.0
1679518692942465,105364.0,150820.0,8273.0
1679518692952465,105685.0,151085.0,8254.0
1679518692962465,105915.0,151300.0,8247.0
1679518692971465,106011.0,151448.0,8281.0
1679518692982465,106108.0,151635.0,8285.0
1679518692992465,106317.0,151867.0,8261.0
1679518693002465,106577.0,152131.0,8272.0
1679518693011465,106872.0,152422.0,8258.0
1679518693022465,107063.0,152593.0,8218.0
1679518693032465,107168.0,152746.0,8271.0
1679518693042465,107232.0,152837.0,8289.0
1679518693051465,107182.0,152873.0,8289.0
1679518693062465,107153.0,152799.0,8338.0
1679518693072465,107118.0,152753.0,8321.0
1679518693082465,107160.0,152729.0,8277.0
1679518693091465,107210.0,152652.0,8257.0
1679518693102465,107269.0,152703.0,8245.0
1679518693112465,107247.0,152671.0,8216.0
1679518693122465,107250.0,152643.0,8189.0
1679518693131465,107183.0,152571.0,8231.0
1679518693142465,107164.0,152471.0,8214.0
1679518693152464,107078.0,152337.0,8226.0
1679518693162464,106953.0,152152.0,8238.0
1679518693171465,106820.0,151902.0,8209.0
1679518693182464,106655.0,151596.0,8217.0
1679518693192464,106513.0,151166.0,8191.0
1679518693202464,106396.0,150781.0,8113.0
1679518693212464,106259.0,150419.0,8099.0
1679518693222465,106181.0,150127.0,8096.0
1679518693231465,106050.0,149782.0,8091.0
1679518693242465,105965.0,149604.0,8036.0
1679518693252465,105878.0,149421.0,8072.0
1679518693262465,105794.0,149265.0,8083.0
1679518693272465,105733.0,149146.0,8072.0
1679518693282465,105694.0,148990.0,8069.0
1679518693291465,105640.0,148860.0,8079.0
1679518693301465,105575.0,148701.0,8058.0
1679518693313465,105498.0,148534.0,8078.0
1679518693322465,105432.0,148393.0,8083.0
1679518693332465,105381.0,148259.0,8083.0
1679518693341465,105335.0,148233.0,8098.0
1679518693352465,105391.0,148272.0,8097.0
1679518693362465,105483.0,148264.0,8085.0
1679518693372465,105623.0,148375.0,8078.0
1679518693381465,105715.0,148484.0,8082.0
1679518693392465,105714.0,148454.0,8088.0
1679518693402465,105700.0,148484.0,8105.0
1679518693414465,105719.0,148482.0,8102.0
1679518693421465,105770.0,148506.0,8094.0
1679518693432465,105809.0,148535.0,8100.0
1679518693442465,105829.0,148566.0,8110.0
1679518693452465,105850.0,148567.0,8102.0
1679518693461465,105884.0,148578.0,8094.0
1679518693471465,105910.0,148564.0,8097.0
1679518693482465,105979.0,148687.0,8082.0
1679518693492465,106186.0,148787.0,8037.0
1679518693501465,106447.0,149004.0,7995.0
1679518693511465,106705.0,149293.0,8031.0
1679518693522465,107149.0,149711.0,8011.0
1679518693532465,107585.0,150168.0,8051.0
1679518693541465,107923.0,150533.0,8076.0
1679518693552465,108147.0,150733.0,8122.0
1679518693562465,108371.0,150952.0,8134.0
1679518693572465,108666.0,151286.0,8190.0
1679518693581465,108973.0,151597.0,8216.0
1679518693592465,109207.0,151934.0,8275.0
1679518693602465,109466.0,152248.0,8323.0
1679518693612465,109688.0,152504.0,8382.0
1679518693622465,109882.0,152712.0,8434.0
1679518693632465,110049.0,152901.0,8461.0
1679518693641465,110191.0,153031.0,8514.0
1679518693652464,110229.0,153097.0,8567.0
1679518693662464,110248.0,153072.0,8596.0
1679518693671465,110216.0,152927.0,8607.0
1679518693681465,110037.0,152655.0,8595.0
1679518693692464,109732.0,152313.0,8626.0
1679518693702464,109388.0,151860.0,8632.0
1679518693711465,109130.0,151540.0,8607.0
1679518693721464,108940.0,151409.0,8628.0
1679518693732464,108768.0,151167.0,8605.0
1679518693742464,108635.0,151103.0,8620.0
1679518693751464,108631.0,151099.0,8588.0
1679518693762465,108570.0,151067.0,8585.0
1679518693772465,108407.0,150886.0,8602.0
1679518693782465,108191.0,150688.0,8614.0
1679518693791465,108009.0,150535.0,8608.0
1679518693801465,107924.0,150458.0,8580.0
1679518693812465,107963.0,150436.0,8515.0
1679518693822465,108109.0,150587.0,8493.0
1679518693831465,108393.0,150889.0,8459.0
1679518693842465,108715.0,151254.0,8447.0
1679518693851465,109064.0,151647.0,8462.0
1679518693862465,109382.0,151981.0,8511.0
1679518693872465,109718.0,152364.0,8554.0
1679518693881465,110110.0,152855.0,8634.0
1679518693891465,110635.0,153495.0,8735.0
1679518693902464,111286.0,154254.0,8848.0
1679518693912464,111805.0,154965.0,9004.0
1679518693921465,112249.0,155504.0,9141.0
1679518693931465,112589.0,155878.0,9230.0
1679518693942465,112818.0,156167.0,9355.0
1679518693952465,112977.0,156299.0,9456.0
1679518693961465,113038.0,156340.0,9480.0
1679518693972465,113064.0,156336.0,9549.0
1679518693982465,113078.0,156281.0,9610.0
1679518693992465,113039.0,156187.0,9629.0
1679518694001465,112979.0,156068.0,9638.0
1679518694011465,112860.0,155909.0,9664.0
1679518694022465,112814.0,155760.0,9659.0
1679518694031465,112707.0,155572.0,9620.0
1679518694041465,112592.0,155350.0,9625.0
1679518694052465,112412.0,155084.0,9618.0
1679518694062465,112174.0,154739.0,9604.0
1679518694071465,111878.0,154337.0,9591.0
1679518694081465,111475.0,153810.0,9584.0
1679518694092465,110893.0,153145.0,9596.0
1679518694102465,110184.0,152413.0,9652.0
1679518694112465,109397.0,151708.0,9748.0
1679518694122465,108709.0,151164.0,9817.0
1679518694131465,108286.0,150661.0,9768.0
1679518694142465,108064.0,150413.0,9703.0
1679518694151465,107918.0,150207.0,9669.0
1679518694162465,107783.0,150043.0,9635.0
1679518694171465,107684.0,149961.0,9616.0
1679518694182465,107588.0,149848.0,9568.0
1679518694191465,107483.0,149767.0,9543.0
1679518694202465,107436.0,149718.0,9509.0
1679518694211465,107370.0,149644.0,9485.0
1679518694222465,107317.0,149598.0,9452.0
1679518694231465,107269.0,149558.0,9433.0
1679518694242465,107202.0,149528.0,9400.0
1679518694251465,107154.0,149539.0,9363.0
1679518694261465,107143.0,149503.0,9346.0
1679518694272465,107102.0,149492.0,9364.0
1679518694282465,107062.0,149468.0,9352.0
1679518694292465,107024.0,149431.0,9320.0
1679518694301465,106993.0,149416.0,9319.0
1679518694311465,106942.0,149357.0,9291.0
1679518694322465,106909.0,149336.0,9271.0
1679518694331465,106860.0,149286.0,9253.0
1679518694342465,106830.0,149232.0,9218.0
1679518694351465,106778.0,149138.0,9198.0
1679518694362465,106738.0,149038.0,9187.0
1679518694372465,106684.0,148951.0,9151.0
1679518694382465,106606.0,148889.0,9155.0
1679518694391465,106533.0,148750.0,9146.0
1679518694402464,106433.0,148651.0,9131.0
1679518694412464,106331.0,148525.0,9134.0
1679518694421465,106241.0,148389.0,9138.0
1679518694431465,106160.0,148334.0,9121.0
1679518694442464,106070.0,148224.0,9122.0
1679518694452464,105998.0,148131.0,9108.0
1679518694461465,105936.0,148040.0,9089.0
1679518694471464,105869.0,147943.0,9077.0
1679518694482465,105826.0,147895.0,9074.0
1679518694492465,105775.0,147833.0,9071.0
1679518694501465,105736.0,147749.0,9059.0
1679518694511465,105707.0,147654.0,9043.0
1679518694522465,105677.0,147695.0,9044.0
1679518694532465,105667.0,147748.0,9027.0
1679518694541465,105649.0,147646.0,9034.0
1679518694551465,105611.0,147598.0,9012.0
1679518694562465,105593.0,147631.0,9011.0
1679518694572465,105600.0,147585.0,8993.0
1679518694581465,105573.0,147563.0,8986.0
1679518694591465,105549.0,147520.0,8959.0
1679518694602465,105523.0,147531.0,8962.0
1679518694612465,105510.0,147471.0,8926.0
1679518694623464,105483.0,147363.0,8907.0
1679518694631464,105430.0,147282.0,8870.0
1679518694641464,105366.0,147188.0,8865.0
1679518694651464,105315.0,147097.0,8845.0
1679518694662465,105295.0,146940.0,8798.0
1679518694671465,105239.0,146766.0,8784.0
1679518694681465,105108.0,146563.0,8789.0
1679518694691465,105006.0,146311.0,8747.0
1679518694702465,104937.0,146071.0,8700.0
1679518694711465,104822.0,145761.0,8730.0
1679518694722465,104682.0,145549.0,8707.0
1679518694731465,104576.0,145331.0,8707.0
1679518694742465,104493.0,145228.0,8700.0
1679518694751465,104433.0,145144.0,8683.0
1679518694761465,104438.0,145125.0,8663.0
1679518694771465,104381.0,145024.0,8678.0
1679518694782465,104380.0,144939.0,8630.0
1679518694791465,104338.0,144832.0,8658.0
1679518694801465,104284.0,144766.0,8640.0
1679518694811465,104215.0,144673.0,8632.0
1679518694822465,104221.0,144613.0,8599.0
1679518694831465,104130.0,144542.0,8638.0
1679518694841465,104155.0,144496.0,8636.0
1679518694851465,104108.0,144456.0,8649.0
1679518694862465,104086.0,144405.0,8638.0
1679518694872465,104015.0,144375.0,8640.0
1679518694881465,104013.0,144306.0,8638.0
1679518694891465,104015.0,144290.0,8622.0
1679518694902464,103948.0,144187.0,8645.0
1679518694912464,103891.0,144092.0,8646.0
1679518694921465,103901.0,144011.0,8655.0
1679518694931465,103861.0,143936.0,8658.0
1679518694942464,103845.0,143865.0,8619.0
1679518694951465,103784.0,143808.0,8658.0
1679518694961465,103828.0,143773.0,8637.0
1679518694971464,103794.0,143751.0,8612.0
1679518694982464,103782.0,143718.0,8641.0
1679518694991464,103774.0,143711.0,8629.0
1679518695001464,103835.0,143732.0,8604.0
1679518695011464,103800.0,143803.0,8632.0
1679518695022465,103827.0,143800.0,8625.0
1679518695031465,103852.0,143840.0,8589.0
1679518695041465,103867.0,143864.0,8588.0
1679518695052465,103861.0,143827.0,8599.0
1679518695062465,103856.0,143833.0,8613.0
1679518695071465,103817.0,143850.0,8622.0
1679518695081465,103834.0,143835.0,8610.0
1679518695091465,103832.0,143818.0,8586.0
1679518695101465,103822.0,143789.0,8602.0
1679518695111465,103789.0,143770.0,8590.0
1679518695122465,103830.0,143725.0,8558.0
1679518695131465,103799.0,143762.0,8579.0
1679518695141465,103876.0,143742.0,8539.0
1679518695151465,103884.0,143746.0,8553.0
1679518695162464,103906.0,143796.0,8505.0
1679518695171465,103927.0,143786.0,8517.0
1679518695181465,103959.0,143827.0,8530.0
1679518695192464,103974.0,143916.0,8521.0
1679518695202465,104020.0,143975.0,8521.0
1679518695211465,104042.0,144046.0,8531.0
1679518695221465,104068.0,144144.0,8524.0
1679518695231465,104067.0,144216.0,8520.0
1679518695242465,104096.0,144261.0,8520.0
1679518695251465,104043.0,144265.0,8539.0
1679518695261465,104056.0,144228.0,8522.0
1679518695271465,104099.0,144270.0,8492.0
1679518695282465,104110.0,144245.0,8495.0
1679518695291465,104094.0,144209.0,8497.0
1679518695301465,104097.0,144221.0,8538.0
1679518695312465,104116.0,144262.0,8537.0
1679518695321465,104124.0,144338.0,8552.0
1679518695331465,104133.0,144353.0,8562.0
1679518695341465,104124.0,144391.0,8564.0
1679518695352465,104127.0,144477.0,8591.0
1679518695361465,104127.0,144555.0,8602.0
1679518695372465,104115.0,144563.0,8600.0
1679518695381465,104123.0,144617.0,8592.0
1679518695392465,104085.0,144613.0,8613.0
1679518695401465,104119.0,144626.0,8615.0
1679518695412464,104137.0,144662.0,8613.0
1679518695421465,104151.0,144703.0,8602.0
1679518695431465,104172.0,144710.0,8601.0
1679518695441465,104196.0,144833.0,8608.0
1679518695452464,104202.0,144918.0,8623.0
1679518695461465,104266.0,144982.0,8607.0
1679518695471464,104284.0,145054.0,8620.0
1679518695481464,104253.0,145100.0,8612.0
1679518695492464,104330.0,145158.0,8609.0
1679518695501464,104338.0,145155.0,8613.0
1679518695511464,104309.0,145156.0,8618.0
1679518695521464,104342.0,145158.0,8605.0
1679518695532464,104337.0,145141.0,8606.0
1679518695540464,104283.0,145139.0,8604.0
1679518695551464,104316.0,145127.0,8601.0
1679518695561465,104336.0,145138.0,8569.0
1679518695572465,104348.0,145136.0,8569.0
1679518695581465,104324.0,145117.0,8596.0
1679518695591465,104327.0,145153.0,8605.0
1679518695601465,104319.0,145163.0,8593.0
1679518695612465,104328.0,145112.0,8571.0
1679518695622465,104324.0,145125.0,8602.0
1679518695632465,104297.0,145107.0,8611.0
1679518695641465,104314.0,145115.0,8595.0
1679518695652464,104294.0,145061.0,8607.0
1679518695661465,104277.0,145073.0,8599.0
1679518695671465,104290.0,145105.0,8596.0
1679518695681465,104284.0,145106.0,8594.0
1679518695692464,104278.0,145120.0,8590.0
1679518695701465,104274.0,145095.0,8597.0
1679518695711465,104278.0,145104.0,8595.0
1679518695721464,104236.0,145105.0,8595.0
1679518695733465,104263.0,145068.0,8585.0
1679518695741465,104251.0,145073.0,8596.0
1679518695751465,104260.0,145049.0,8590.0
1679518695761465,104268.0,145027.0,8568.0
1679518695772465,104244.0,145028.0,8579.0
1679518695781465,104261.0,145075.0,8581.0
1679518695791465,104249.0,145066.0,8587.0
1679518695801465,104256.0,145010.0,8583.0
1679518695812465,104243.0,145033.0,8586.0
1679518695821465,104253.0,145086.0,8587.0
1679518695833465,104261.0,145151.0,8584.0
1679518695841465,104273.0,145173.0,8584.0
1679518695851465,104221.0,145216.0,8592.0
1679518695861465,104253.0,145216.0,8594.0
1679518695872465,104281.0,145237.0,8548.0
1679518695881465,104244.0,145274.0,8595.0
1679518695891465,104268.0,145247.0,8563.0
1679518695901465,104287.0,145247.0,8534.0
1679518695912464,104298.0,145253.0,8532.0
1679518695921465,104296.0,145237.0,8566.0
1679518695931465,104307.0,145252.0,8549.0
1679518695942465,104241.0,145207.0,8556.0
1679518695952465,104293.0,145179.0,8536.0
1679518695961465,104276.0,145182.0,8539.0
1679518695971465,104282.0,145177.0,8538.0
1679518695981465,104284.0,145180.0,8525.0
1679518695992465,104252.0,145184.0,8535.0
1679518696000465,104233.0,145149.0,8527.0
1679518696011464,104259.0,145151.0,8510.0
1679518696021464,104278.0,145148.0,8492.0
1679518696032464,104269.0,145141.0,8482.0
1679518696041464,104290.0,145155.0,8496.0
1679518696051464,104261.0,145101.0,8513.0
1679518696062464,104272.0,145075.0,8513.0
1679518696071464,104257.0,145099.0,8498.0
1679518696081464,104257.0,145125.0,8500.0
1679518696091464,104275.0,145048.0,8506.0
1679518696101465,104268.0,145084.0,8501.0
1679518696110465,104268.0,145101.0,8507.0
1679518696121465,104255.0,145096.0,8514.0
1679518696130465,104278.0,145079.0,8502.0
1679518696140465,104274.0,145076.0,8495.0
1679518696150465,104268.0,145069.0,8505.0
1679518696161465,104250.0,145108.0,8502.0
1679518696170465,104250.0,145089.0,8498.0
1679518696180465,104267.0,145090.0,8490.0
1679518696190465,104267.0,145088.0,8492.0
1679518696201465,104278.0,145131.0,8504.0
1679518696210465,104278.0,145057.0,8487.0
1679518696220465,104265.0,145116.0,8484.0
1679518696230465,104279.0,145127.0,8491.0
1679518696241464,104276.0,145067.0,8499.0
1679518696249464,104261.0,145119.0,8483.0
1679518696260464,104224.0,145121.0,8489.0
1679518696270464,104266.0,145105.0,8480.0
1679518696282465,104256.0,145105.0,8486.0
1679518696291465,104211.0,145096.0,8487.0
1679518696301465,104268.0,145100.0,8483.0
1679518696311465,104263.0,145078.0,8483.0
1679518696321465,104260.0,145041.0,8485.0
1679518696331465,104237.0,145090.0,8485.0
1679518696341465,104235.0,145082.0,8461.0
1679518696351465,104253.0,145082.0,8475.0
1679518696362465,104252.0,145068.0,8481.0
1679518696371465,104253.0,145029.0,8470.0
1679518696381465,104251.0,145032.0,8472.0
1679518696391465,104262.0,145014.0,8475.0
1679518696402464,104238.0,145014.0,8473.0
1679518696411465,104240.0,144981.0,8486.0
1679518696421465,104238.0,144995.0,8478.0
1679518696431465,104238.0,144949.0,8470.0
1679518696442464,104224.0,144987.0,8471.0
1679518696451465,104228.0,144980.0,8473.0
1679518696461465,104231.0,145009.0,8465.0
1679518696471465,104205.0,145007.0,8468.0
1679518696482465,104225.0,144979.0,8475.0
1679518696491465,104225.0,144927.0,8454.0
1679518696500465,104202.0,144950.0,8465.0
1679518696511465,104177.0,144990.0,8480.0
1679518696521465,104183.0,144962.0,8475.0
1679518696532465,104200.0,144973.0,8433.0
1679518696540465,104165.0,144981.0,8468.0
1679518696551464,104222.0,144969.0,8464.0
1679518696562464,104232.0,144985.0,8471.0
1679518696571464,104221.0,144984.0,8478.0
1679518696581464,104212.0,144999.0,8479.0
1679518696591464,104225.0,145002.0,8478.0
1679518696601464,104234.0,145039.0,8484.0
1679518696611464,104233.0,145051.0,8479.0
1679518696622464,104238.0,145043.0,8473.0
1679518696631464,104220.0,145085.0,8476.0
1679518696641465,104231.0,145077.0,8476.0
1679518696651465,104231.0,145105.0,8471.0
1679518696662464,104231.0,145069.0,8453.0
1679518696671465,104243.0,145093.0,8474.0
1679518696681465,104214.0,145056.0,8461.0
1679518696691465,104216.0,145066.0,8454.0
1679518696701465,104175.0,145025.0,8447.0
1679518696711465,104216.0,145004.0,8439.0
1679518696721464,104189.0,144997.0,8444.0
1679518696731464,104169.0,144982.0,8446.0
1679518696741464,104177.0,144973.0,8425.0
1679518696751464,104218.0,144949.0,8414.0
1679518696761464,104199.0,144977.0,8434.0
1679518696771464,104195.0,144940.0,8432.0
1679518696782464,104212.0,144934.0,8432.0
1679518696790464,104196.0,144939.0,8430.0
1679518696801464,104203.0,144882.0,8424.0
1679518696811464,104205.0,144916.0,8433.0
1679518696822465,104187.0,144905.0,8423.0
1679518696831465,104189.0,144888.0,8425.0
1679518696841465,104205.0,144897.0,8390.0
1679518696851465,104202.0,144834.0,8419.0
1679518696861465,104194.0,144869.0,8413.0
1679518696872465,104201.0,144910.0,8411.0
1679518696880464,104180.0,144896.0,8411.0
1679518696891464,104174.0,144900.0,8428.0
1679518696901464,104204.0,144925.0,8411.0
1679518696912464,104188.0,144913.0,8419.0
1679518696920464,104153.0,144874.0,8418.0
1679518696931464,104202.0,144921.0,8412.0
1679518696941464,104184.0,144909.0,8426.0
1679518696951464,104210.0,144862.0,8399.0
1679518696961464,104208.0,144895.0,8424.0
1679518696971464,104218.0,144899.0,8423.0
1679518696981464,104204.0,144891.0,8414.0
1679518696991464,104222.0,144900.0,8405.0
1679518697001465,104214.0,144903.0,8405.0
1679518697011465,104215.0,144889.0,8412.0
1679518697021465,104224.0,144897.0,8406.0
1679518697031465,104223.0,144886.0,8392.0
1679518697040465,104215.0,144885.0,8404.0
1679518697051465,104219.0,144911.0,8356.0
1679518697061465,104177.0,144878.0,8409.0
1679518697071465,104212.0,144881.0,8363.0
1679518697081465,104225.0,144907.0,8380.0
1679518697091465,104232.0,144858.0,8390.0
1679518697100465,104225.0,144876.0,8419.0
1679518697111465,104230.0,144870.0,8398.0
1679518697122465,104213.0,144870.0,8411.0
1679518697131465,104213.0,144871.0,8415.0
1679518697142465,104224.0,144865.0,8393.0
1679518697151465,104226.0,144864.0,8396.0
1679518697162464,104222.0,144843.0,8403.0
1679518697170464,104218.0,144842.0,8402.0
1679518697181465,104220.0,144866.0,8403.0
1679518697191465,104219.0,144877.0,8405.0
1679518697202465,104220.0,144854.0,8406.0
1679518697210465,104218.0,144855.0,8407.0
1679518697221464,104222.0,144832.0,8418.0
1679518697231464,104222.0,144881.0,8397.0
1679518697242464,104209.0,144849.0,8409.0
1679518697250464,104222.0,144797.0,8401.0
1679518697261464,104204.0,144851.0,8403.0
1679518697271464,104216.0,144864.0,8408.0
1679518697282464,104210.0,144859.0,8404.0
1679518697290464,104210.0,144816.0,8419.0
1679518697301464,104220.0,144845.0,8409.0
1679518697311464,104206.0,144871.0,8405.0
1679518697321464,104202.0,144847.0,8402.0
1679518697331464,104223.0,144858.0,8412.0
1679518697343464,104213.0,144909.0,8409.0
1679518697351464,104208.0,144895.0,8421.0
1679518697361465,104167.0,144930.0,8418.0
1679518697371465,104156.0,144930.0,8429.0
1679518697381465,104211.0,144915.0,8434.0
1679518697391465,104231.0,144880.0,8420.0
1679518697401465,104209.0,144918.0,8413.0
1679518697411465,104237.0,144945.0,8386.0
1679518697421465,104223.0,144933.0,8414.0
1679518697431465,104220.0,144937.0,8411.0
1679518697443465,104205.0,144906.0,8410.0
1679518697451465,104205.0,144848.0,8402.0
1679518697461465,104202.0,144894.0,8395.0
1679518697471464,104190.0,144823.0,8386.0
1679518697481464,104183.0,144875.0,8404.0
1679518697491464,104200.0,144892.0,8394.0
1679518697501464,104192.0,144811.0,8375.0
1679518697510465,104183.0,144826.0,8383.0
1679518697521464,104198.0,144862.0,8377.0
1679518697531464,104180.0,144754.0,8371.0
1679518697541465,104181.0,144812.0,8389.0
1679518697551465,104185.0,144812.0,8383.0
1679518697561465,104212.0,144795.0,8385.0
1679518697571465,104188.0,144765.0,8380.0
1679518697581465,104189.0,144732.0,8383.0
1679518697591465,104189.0,144780.0,8380.0
1679518697601465,104179.0,144782.0,8380.0
1679518697611465,104198.0,144752.0,8372.0
1679518697622465,104195.0,144793.0,8373.0
1679518697630464,104186.0,144762.0,8383.0
1679518697641464,104186.0,144734.0,8376.0
1679518697651464,104192.0,144762.0,8374.0
1679518697662464,104183.0,144763.0,8379.0
1679518697670464,104179.0,144755.0,8375.0
1679518697681464,104188.0,144759.0,8375.0
1679518697691464,104180.0,144732.0,8381.0
1679518697702464,104175.0,144717.0,8384.0
1679518697710464,104198.0,144763.0,8366.0
1679518697721465,104188.0,144778.0,8384.0
1679518697731465,104186.0,144739.0,8387.0
1679518697741465,104177.0,144770.0,8370.0
1679518697750465,104145.0,144761.0,8382.0
1679518697760465,104186.0,144741.0,8384.0
1679518697771465,104186.0,144751.0,8334.0
1679518697782465,104185.0,144729.0,8363.0
1679518697790465,104187.0,144737.0,8367.0
1679518697801464,104169.0,144741.0,8382.0
1679518697811464,104173.0,144703.0,8380.0
1679518697821464,104174.0,144701.0,8373.0
1679518697831464,104178.0,144716.0,8377.0
1679518697841464,104180.0,144715.0,8371.0
1679518697851464,104171.0,144680.0,8387.0
1679518697861464,104177.0,144737.0,8372.0
1679518697871464,104131.0,144720.0,8377.0
1679518697881464,104140.0,144717.0,8383.0
1679518697890464,104129.0,144734.0,8381.0
1679518697901465,104158.0,144711.0,8361.0
1679518697911465,104173.0,144719.0,8356.0
1679518697921465,104144.0,144737.0,8384.0
1679518697930465,104138.0,144691.0,8387.0
1679518697941465,104185.0,144707.0,8346.0
1679518697951465,104171.0,144699.0,8380.0
1679518697960465,104171.0,144703.0,8370.0
1679518697970465,104173.0,144694.0,8361.0
1679518697981464,104133.0,144699.0,8388.0
1679518697991464,104149.0,144691.0,8374.0
1679518698001464,104175.0,144695.0,8359.0
1679518698010465,104128.0,144704.0,8387.0
1679518698021464,104120.0,144688.0,8386.0
1679518698031464,104159.0,144693.0,8354.0
1679518698040465,104138.0,144690.0,8391.0
1679518698051464,104123.0,144672.0,8384.0
1679518698061464,104170.0,144638.0,8379.0
1679518698071464,104182.0,144677.0,8376.0
1679518698081465,104174.0,144677.0,8384.0
1679518698090465,104176.0,144685.0,8382.0
1679518698101465,104172.0,144714.0,8386.0
1679518698111465,104174.0,144725.0,8384.0
1679518698122465,104142.0,144733.0,8394.0
1679518698130464,104175.0,144712.0,8393.0
1679518698141464,104172.0,144775.0,8396.0
1679518698151464,104171.0,144790.0,8388.0
1679518698161464,104178.0,144753.0,8370.0
1679518698170464,104178.0,144820.0,8378.0
1679518698181464,104190.0,144791.0,8362.0
1679518698190464,104162.0,144782.0,8360.0
1679518698201464,104181.0,144769.0,8369.0
1679518698210464,104176.0,144759.0,8377.0
1679518698221464,104181.0,144785.0,8339.0
1679518698231464,104179.0,144740.0,8364.0
1679518698241464,104166.0,144746.0,8374.0
1679518698251464,104155.0,144753.0,8355.0
1679518698261465,104169.0,144677.0,8375.0
1679518698270465,104161.0,144658.0,8375.0
1679518698281465,104164.0,144694.0,8359.0
1679518698291465,104157.0,144695.0,8368.0
1679518698301465,104147.0,144701.0,8362.0
1679518698310465,104121.0,144697.0,8368.0
1679518698321465,104128.0,144675.0,8373.0
1679518698331465,104113.0,144666.0,8362.0
1679518698341465,104145.0,144686.0,8362.0
1679518698351465,104112.0,144661.0,8371.0
1679518698361465,104103.0,144696.0,8359.0
1679518698371465,104138.0,144646.0,8345.0
1679518698380465,104159.0,144648.0,8325.0
1679518698390465,104151.0,144628.0,8353.0
1679518698401465,104142.0,144628.0,8336.0
1679518698411465,104143.0,144637.0,8336.0
1679518698420465,104160.0,144634.0,8337.0
1679518698430465,104118.0,144634.0,8345.0
1679518698441465,104152.0,144652.0,8321.0
1679518698452465,104160.0,144645.0,8356.0
1679518698460465,104147.0,144661.0,8352.0
1679518698470465,104157.0,144647.0,8355.0
1679518698481464,104155.0,144640.0,8315.0
1679518698491464,104111.0,144638.0,8373.0
1679518698500465,104116.0,144633.0,8376.0
1679518698510465,104133.0,144635.0,8346.0
1679518698521464,104151.0,144635.0,8327.0
1679518698531464,104152.0,144623.0,8348.0
1679518698540465,104158.0,144637.0,8354.0
1679518698552465,104155.0,144620.0,8357.0
1679518698561465,104151.0,144625.0,8357.0
1679518698571465,104146.0,144605.0,8367.0
1679518698581465,104144.0,144601.0,8355.0
1679518698591465,104145.0,144628.0,8373.0
1679518698600465,104147.0,144619.0,8377.0
1679518698611465,104141.0,144604.0,8371.0
1679518698621465,104151.0,144623.0,8355.0
1679518698631465,104134.0,144631.0,8362.0
1679518698640465,104144.0,144575.0,8352.0
1679518698653465,104138.0,144573.0,8372.0
1679518698661465,104133.0,144599.0,8365.0
1679518698671465,104144.0,144608.0,8370.0
1679518698680465,104151.0,144618.0,8370.0
1679518698691465,104146.0,144620.0,8365.0
1679518698701465,104142.0,144591.0,8373.0
1679518698710465,104147.0,144629.0,8362.0
1679518698720465,104148.0,144613.0,8370.0
1679518698731464,104126.0,144572.0,8387.0
1679518698741464,104137.0,144599.0,8364.0
1679518698751464,104133.0,144605.0,8371.0
1679518698760465,104128.0,144566.0,8371.0
1679518698771464,104099.0,144583.0,8380.0
1679518698781464,104116.0,144575.0,8381.0
1679518698790465,104135.0,144588.0,8335.0
1679518698800465,104139.0,144584.0,8362.0
1679518698811465,104159.0,144589.0,8344.0
1679518698821465,104151.0,144605.0,8365.0
1679518698831465,104104.0,144592.0,8383.0
1679518698840465,104099.0,144576.0,8382.0
1679518698851465,104129.0,144584.0,8376.0
1679518698860465,104097.0,144574.0,8378.0
1679518698871465,104143.0,144590.0,8361.0
1679518698880465,104146.0,144591.0,8354.0
1679518698891465,104144.0,144598.0,8358.0
1679518698900465,104155.0,144619.0,8385.0
1679518698911465,104146.0,144618.0,8349.0
1679518698920465,104143.0,144634.0,8383.0
1679518698931465,104149.0,144639.0,8373.0
1679518698940465,104138.0,144659.0,8348.0
1679518698951465,104148.0,144663.0,8377.0
1679518698961465,104146.0,144688.0,8389.0
1679518698970465,104141.0,144611.0,8392.0
1679518698981465,104128.0,144618.0,8382.0
1679518698991465,104133.0,144643.0,8381.0
1679518699001465,104120.0,144663.0,8389.0
1679518699010465,104142.0,144586.0,8381.0
1679518699020465,104127.0,144602.0,8382.0
1679518699031465,104111.0,144618.0,8357.0
1679518699040465,104136.0,144613.0,8343.0
1679518699050465,104130.0,144615.0,8346.0
1679518699061465,104096.0,144600.0,8361.0
1679518699071465,104129.0,144594.0,8368.0
1679518699081465,104106.0,144575.0,8372.0
1679518699090465,104120.0,144564.0,8371.0
1679518699101465,104119.0,144536.0,8360.0
1679518699111465,104100.0,144556.0,8352.0
1679518699121465,104118.0,144528.0,8362.0
1679518699130465,104101.0,144510.0,8365.0
1679518699141465,104108.0,144546.0,8378.0
1679518699151465,104112.0,144524.0,8368.0
1679518699161465,104107.0,144512.0,8357.0
1679518699170465,104051.0,144546.0,8365.0
1679518699181465,104090.0,144523.0,8364.0
1679518699191465,104104.0,144497.0,8361.0
1679518699200465,104119.0,144518.0,8356.0
1679518699210465,104122.0,144508.0,8355.0
1679518699221465,104110.0,144531.0,8370.0
1679518699231465,104114.0,144534.0,8366.0
1679518699241465,104092.0,144520.0,8372.0
1679518699250465,104119.0,144510.0,8368.0
1679518699261465,104111.0,144514.0,8366.0
1679518699270465,104113.0,144526.0,8364.0
1679518699281465,104104.0,144543.0,8351.0
1679518699290465,104095.0,144546.0,8370.0
1679518699300465,104073.0,144541.0,8372.0
