Data Set 1:Time(s),Data Set 1:Force(N),Data Set 1:Respiration Rate(bpm)
0,4.7393798828125,16.304347991943359
0.099999999999999992,5.3525848388671875,
0.19999999999999998,5.7843780517578125,
0.29999999999999999,5.32958984375,
0.39999999999999997,4.7751541137695312,
0.5,4.3203659057617188,
0.59999999999999998,3.9371109008789062,
0.69999999999999996,3.5232009887695312,
0.79999999999999993,3.1578369140625,
0.89999999999999991,2.8793411254882812,
1,2.6800537109375,
1.0999999999999999,2.5752944946289062,
1.2,2.5574111938476562,
1.3,2.524200439453125,
1.3999999999999999,2.4475479125976562,
1.5,2.4373245239257812,
1.5999999999999999,2.6187362670898438,
1.7,3.037750244140625,
1.7999999999999998,3.4542160034179688,
1.8999999999999999,4.0035400390625,
2,4.5784149169921875,
2.1000000000000001,5.1098556518554688,
2.1999999999999997,5.5825347900390625,
2.2999999999999998,5.9555587768554688,
2.3999999999999999,6.0475387573242188,
2.5,5.7715988159179688,
2.6000000000000001,5.3321456909179688,
2.6999999999999997,4.8952407836914062,
2.7999999999999998,4.4889907836914062,
2.8999999999999999,4.1645050048828125,
3,3.85791015625,
3.0999999999999996,3.5768585205078125,
3.1999999999999997,3.2932510375976562,
3.2999999999999998,3.0249786376953125,
3.3999999999999999,2.8307952880859375,
3.5,2.6953811645507812,
3.5999999999999996,2.6212844848632812,
3.6999999999999997,2.5804061889648438,
3.7999999999999998,2.5701904296875,
3.8999999999999999,2.577850341796875,
4,2.5982894897460938,
4.0999999999999996,2.6136245727539062,
4.2000000000000002,2.559967041015625,
4.2999999999999998,2.485870361328125,
4.3999999999999995,2.4628753662109375,
4.5,2.4654312133789062,
4.5999999999999996,2.4654312133789062,
4.7000000000000002,2.4628753662109375,
4.7999999999999998,2.542083740234375,
4.8999999999999995,2.84613037109375,
5,3.3443527221679688,
5.0999999999999996,3.8272476196289062,
5.2000000000000002,4.2922592163085938,
5.2999999999999998,4.8083648681640625,
5.3999999999999995,5.3116989135742188,
5.5,5.7639389038085938,
5.5999999999999996,6.1395187377929688,
5.7000000000000002,6.28515625,
5.7999999999999998,6.0015487670898438,
5.8999999999999995,5.54931640625,
6,4.9948806762695312,
6.0999999999999996,4.5068740844726562,
6.1999999999999993,4.0699691772460938,
6.2999999999999998,3.7071609497070312,
6.3999999999999995,3.3903427124023438,
6.5,3.1271743774414062,
6.5999999999999996,2.9202194213867188,
6.6999999999999993,2.7797012329101562,
6.7999999999999998,2.7132644653320312,
6.8999999999999995,2.6749420166015625,
7,2.5931854248046875,
7.0999999999999996,2.51397705078125,
7.1999999999999993,2.4807662963867188,
7.2999999999999998,2.4730987548828125,
7.3999999999999995,2.467987060546875,
7.5,2.4552154541015625,
7.5999999999999996,2.4475479125976562,
7.6999999999999993,2.5216445922851562,
7.7999999999999998,2.7337112426757812,
7.8999999999999995,3.0862960815429688,
8,3.5870742797851562,
8.0999999999999996,4.1542892456054688,
8.1999999999999993,4.72149658203125,
8.2999999999999989,5.2606048583984375,
8.4000000000000004,5.7562713623046875,
8.5,6.1599655151367188,
8.5999999999999996,6.37713623046875,
8.6999999999999993,6.1318588256835938,
8.7999999999999989,5.4650039672851562,
8.9000000000000004,4.8543548583984375,
9,4.4072341918945312,
9.0999999999999996,3.921783447265625,
9.1999999999999993,3.43377685546875,
9.2999999999999989,3.0965194702148438,
9.4000000000000004,2.9023361206054688,
9.5,2.7413711547851562,
9.5999999999999996,2.5957412719726562,
9.6999999999999993,2.5369720458984375,
9.7999999999999989,2.7490386962890625,
9.9000000000000004,3.4286651611328125,
10,4.4532241821289062,16.794961929321289
10.1,5.2963714599609375,
10.199999999999999,5.945343017578125,
10.299999999999999,5.7715988159179688,
10.4,5.2784881591796875,
10.5,4.6678390502929688,
10.6,4.0623092651367188,
10.699999999999999,3.6662826538085938,
10.799999999999999,3.2089385986328125,
10.9,2.8282394409179688,
11,2.6136245727539062,
11.1,2.5165328979492188,
11.199999999999999,2.4296646118164062,
11.299999999999999,2.3325729370117188,
11.4,2.29425048828125,
11.5,2.2789154052734375,
11.6,2.2789154052734375,
11.699999999999999,2.2635879516601562,
11.799999999999999,2.2405929565429688,
11.899999999999999,2.2712554931640625,
12,2.2763595581054688,
12.1,2.22015380859375,
12.199999999999999,2.284027099609375,
12.299999999999999,2.66217041015625,
12.399999999999999,3.295806884765625,
12.5,3.9805450439453125,
12.6,4.6320724487304688,
12.699999999999999,5.181396484375,
12.799999999999999,5.7332763671875,
12.899999999999999,6.3796920776367188,
13,6.8625869750976562,
13.1,6.8804702758789062,
13.199999999999999,6.532989501953125,
13.299999999999999,6.0782012939453125,
13.399999999999999,5.60552978515625,
13.5,5.1558456420898438,
13.6,4.731719970703125,
13.699999999999999,4.3280258178710938,
13.799999999999999,3.9652175903320312,
13.899999999999999,3.6765060424804688,
14,3.4158935546875,
14.1,3.1246261596679688,
14.199999999999999,2.8691253662109375,
14.299999999999999,2.7362594604492188,
14.399999999999999,2.6468353271484375,
14.5,2.5522994995117188,
14.6,2.450103759765625,
14.699999999999999,2.3785629272460938,
14.799999999999999,2.3427963256835938,
14.899999999999999,2.3427963256835938,
15,2.4092254638671875,
15.1,2.7234878540039062,
15.199999999999999,3.24981689453125,
15.299999999999999,3.76593017578125,
15.399999999999999,4.2999191284179688,
15.5,4.8952407836914062,
15.6,5.4190139770507812,
15.699999999999999,5.6847305297851562,
15.799999999999999,5.5109939575195312,
15.899999999999999,5.0510940551757812,
16,4.6525115966796875,
16.099999999999998,4.4481124877929688,
16.199999999999999,4.335693359375,
16.300000000000001,4.271820068359375,
16.399999999999999,4.141510009765625,
16.5,3.8860092163085938,
16.599999999999998,3.5972976684570312,
16.699999999999999,3.2753677368164062,
16.800000000000001,3.0147552490234375,
16.899999999999999,2.8486862182617188,
17,2.7515945434570312,
17.099999999999998,2.6468353271484375,
17.199999999999999,2.5165328979492188,
17.300000000000001,2.432220458984375,
17.399999999999999,2.393890380859375,
17.5,2.3887863159179688,
17.599999999999998,2.3836746215820312,
17.699999999999999,2.3708953857421875,
17.800000000000001,2.3683395385742188,
17.899999999999999,2.3632354736328125,
18,2.3990020751953125,
18.099999999999998,2.3836746215820312,
18.199999999999999,2.3146896362304688,
18.300000000000001,2.2891387939453125,
18.399999999999999,2.284027099609375,
18.5,2.3427963256835938,
18.599999999999998,2.5676345825195312,
18.699999999999999,2.9483261108398438,
18.800000000000001,3.3673477172851562,
18.899999999999999,3.7965850830078125,
19,4.2207183837890625,
19.099999999999998,4.64739990234375,
19.199999999999999,5.1021957397460938,
19.300000000000001,5.5416488647460938,
19.399999999999999,5.835479736328125,
19.5,5.7537155151367188,
19.599999999999998,5.3653564453125,
19.699999999999999,4.9182357788085938,
19.800000000000001,4.5503158569335938,
19.899999999999999,4.233489990234375,
20,3.9601058959960938,20.285499572753906
20.099999999999998,3.80169677734375,
20.199999999999999,3.72760009765625,
20.300000000000001,3.7582626342773438,
20.399999999999999,3.819580078125,
20.5,3.7710342407226562,
20.599999999999998,3.6713943481445312,
20.699999999999999,3.5283126831054688,
20.800000000000001,3.221710205078125,
20.899999999999999,2.8767852783203125,
21,2.634063720703125,
21.099999999999998,2.4884262084960938,
21.199999999999999,2.4168853759765625,
21.300000000000001,2.3811187744140625,
21.399999999999999,2.340240478515625,
21.5,2.3376846313476562,
21.599999999999998,2.3555679321289062,
21.699999999999999,2.5395278930664062,
21.800000000000001,2.9943161010742188,
21.899999999999999,3.5794143676757812,
22,4.2360458374023438,
22.099999999999998,4.9003448486328125,
22.199999999999999,5.4496688842773438,
22.300000000000001,5.8584747314453125,
22.399999999999999,6.0347671508789062,
22.5,5.6719589233398438,
22.599999999999998,5.1379623413085938,
22.699999999999999,4.915679931640625,
22.800000000000001,4.7904815673828125,
22.899999999999999,4.657623291015625,
23,4.59375,
23.099999999999998,4.555419921875,
23.199999999999999,4.53753662109375,
23.300000000000001,4.4864349365234375,
23.399999999999999,4.3842391967773438,
23.5,4.3229141235351562,
23.599999999999998,4.2999191284179688,
23.699999999999999,4.2948150634765625,
23.799999999999997,4.2360458374023438,
23.899999999999999,4.1594009399414062,
24,4.1134109497070312,
24.099999999999998,4.0418701171875,
24.199999999999999,3.8936767578125,
24.299999999999997,3.7020492553710938,
24.399999999999999,3.444000244140625,
24.5,3.1322860717773438,
24.599999999999998,2.9048919677734375,
24.699999999999999,2.7950286865234375,
24.799999999999997,2.669830322265625,
24.899999999999999,2.5395278930664062,
25,2.4245529174804688,
25.099999999999998,2.29425048828125,
25.199999999999999,2.2252655029296875,
25.299999999999997,2.1997146606445312,
25.399999999999999,2.2124862670898438,
25.5,2.3121337890625,
25.599999999999998,2.6391754150390625,
25.699999999999999,3.1987152099609375,
25.799999999999997,3.8068084716796875,
25.899999999999999,4.3944549560546875,
26,4.969329833984375,
26.099999999999998,5.4317855834960938,
26.199999999999999,5.8278121948242188,
26.299999999999997,6.1369705200195312,
26.399999999999999,6.0756454467773438,
26.5,5.6285247802734375,
26.599999999999998,5.1149673461914062,
26.699999999999999,4.6167449951171875,
26.799999999999997,4.1491775512695312,
26.899999999999999,3.829803466796875,
27,3.6049652099609375,
27.099999999999998,3.39801025390625,
27.199999999999999,3.21405029296875,
27.299999999999997,3.093963623046875,
27.399999999999999,3.001983642578125,
27.5,2.8665695190429688,
27.599999999999998,2.7950286865234375,
27.699999999999999,2.8486862182617188,
27.799999999999997,2.9023361206054688,
27.899999999999999,2.910003662109375,
28,2.8895645141601562,
28.099999999999998,2.9151153564453125,
28.199999999999999,2.9202194213867188,
28.299999999999997,2.8231353759765625,
28.399999999999999,2.7132644653320312,
28.5,2.6442794799804688,
28.599999999999998,2.559967041015625,
28.699999999999999,2.450103759765625,
28.799999999999997,2.376007080078125,
28.899999999999999,2.3555679321289062,
29,2.3146896362304688,
29.099999999999998,2.248260498046875,
29.199999999999999,2.2789154052734375,
29.299999999999997,2.542083740234375,
29.399999999999999,2.9508819580078125,
29.5,3.3571243286132812,
29.599999999999998,3.7965850830078125,
29.699999999999999,4.1926116943359375,
29.799999999999997,4.5273208618164062,
29.899999999999999,4.7291641235351562,
30,4.583526611328125,20.297698974609375
30.099999999999998,4.2028350830078125,
30.199999999999999,3.8936767578125,
30.299999999999997,3.72760009765625,
30.399999999999999,3.6381759643554688,
30.5,3.5129852294921875,
30.599999999999998,3.341796875,
30.699999999999999,3.168060302734375,
30.799999999999997,3.0505294799804688,
30.899999999999999,2.9687652587890625,
31,2.9381103515625,
31.099999999999998,3.0862960815429688,
31.199999999999999,3.2012710571289062,
31.299999999999997,3.1936111450195312,
31.399999999999999,3.1144027709960938,
31.5,2.9304428100585938,
31.599999999999998,2.7490386962890625,
31.699999999999999,2.6468353271484375,
31.799999999999997,2.5727462768554688,
31.899999999999999,2.5522994995117188,
32,2.5574111938476562,
32.100000000000001,2.5190887451171875,
32.199999999999996,2.51397705078125,
32.299999999999997,2.4807662963867188,
32.399999999999999,2.3657913208007812,
32.5,2.2712554931640625,
32.600000000000001,2.1716079711914062,
32.699999999999996,2.0413055419921875,
32.799999999999997,1.880340576171875,
32.899999999999999,1.7806930541992188,
33,1.7679214477539062,
33.100000000000001,1.7909164428710938,
33.199999999999996,1.8650054931640625,
33.299999999999997,1.9033355712890625,
33.399999999999999,1.9135513305664062,
33.5,2.1639404296875,
33.600000000000001,2.6570587158203125,
33.699999999999996,3.2344894409179688,
33.799999999999997,3.8527984619140625,
33.899999999999999,4.4711074829101562,
34,5.0792007446289062,
34.100000000000001,5.6464080810546875,
34.199999999999996,5.9197921752929688,
34.299999999999997,5.6208572387695312,
34.399999999999999,5.0280990600585938,
34.5,4.4992141723632812,
34.600000000000001,4.0367584228515625,
34.699999999999996,3.6330642700195312,
34.799999999999997,3.3060302734375,
34.899999999999999,2.9764328002929688,
35,2.7745895385742188,
35.100000000000001,2.6928253173828125,
35.199999999999996,2.6187362670898438,
35.299999999999997,2.5625228881835938,
35.399999999999999,2.4935379028320312,
35.5,2.4373245239257812,
35.600000000000001,2.3836746215820312,
35.699999999999996,2.3683395385742188,
35.799999999999997,2.3887863159179688,
35.899999999999999,2.4066696166992188,
36,2.358123779296875,
36.100000000000001,2.266143798828125,
36.199999999999996,2.2124862670898438,
36.299999999999997,2.174163818359375,
36.399999999999999,2.1690521240234375,
36.5,2.1716079711914062,
36.600000000000001,2.1894912719726562,
36.699999999999996,2.3121337890625,
36.799999999999997,2.6442794799804688,
36.899999999999999,3.0709686279296875,
37,3.5385360717773438,
37.100000000000001,4.07763671875,
37.199999999999996,4.601409912109375,
37.299999999999997,5.117523193359375,
37.399999999999999,5.669403076171875,
37.5,6.3004913330078125,
37.600000000000001,6.900909423828125,
37.699999999999996,7.2841644287109375,
37.799999999999997,7.0797653198242188,
37.899999999999999,6.4026870727539062,
38,5.8048171997070312,
38.100000000000001,5.3500289916992188,
38.199999999999996,4.9769973754882812,
38.299999999999997,4.68572998046875,
38.399999999999999,4.4430007934570312,
38.5,4.16961669921875,
38.600000000000001,3.8630142211914062,
38.699999999999996,3.6100692749023438,
38.799999999999997,3.4005661010742188,
38.899999999999999,3.2114944458007812,
39,3.0633010864257812,
39.100000000000001,2.945770263671875,
39.199999999999996,2.8614578247070312,
39.299999999999997,2.8026962280273438,
39.399999999999999,2.6826095581054688,
39.5,2.5293045043945312,
39.600000000000001,2.4219970703125,
39.699999999999996,2.3453445434570312,
39.799999999999997,2.2891387939453125,
39.899999999999999,2.2303695678710938,
40,2.192047119140625,17.531044006347656
40.100000000000001,2.1818313598632812,
40.199999999999996,2.22015380859375,
40.299999999999997,2.2175979614257812,
40.399999999999999,2.1664962768554688,
40.5,2.1153945922851562,
40.600000000000001,2.1358413696289062,
40.699999999999996,2.3223495483398438,
40.799999999999997,2.6851654052734375,
40.899999999999999,3.1195144653320312,
41,3.5845260620117188,
41.100000000000001,4.0904159545898438,
41.199999999999996,4.61163330078125,
41.299999999999997,5.0843048095703125,
41.399999999999999,5.4139022827148438,
41.5,5.4931106567382812,
41.600000000000001,5.2018356323242188,
41.699999999999996,4.6985015869140625,
41.799999999999997,4.2488250732421875,
41.899999999999999,3.8834609985351562,
42,3.5640792846679688,
42.100000000000001,3.2855911254882812,
42.199999999999996,3.076080322265625,
42.299999999999997,2.9074478149414062,
42.399999999999999,2.7234878540039062,
42.5,2.5727462768554688,
42.600000000000001,2.47821044921875,
42.699999999999996,2.4194412231445312,
42.799999999999997,2.3785629272460938,
42.899999999999999,2.347900390625,
43,2.3325729370117188,
43.100000000000001,2.3325729370117188,
43.199999999999996,2.3555679321289062,
43.299999999999997,2.3606796264648438,
43.399999999999999,2.2968063354492188,
43.5,2.2303695678710938,
43.600000000000001,2.209930419921875,
43.699999999999996,2.2124862670898438,
43.799999999999997,2.2073745727539062,
43.899999999999999,2.1997146606445312,
44,2.2431488037109375,
44.100000000000001,2.4296646118164062,
44.199999999999996,2.7899169921875,
44.299999999999997,3.1552810668945312,
44.399999999999999,3.4746551513671875,
44.5,3.8170242309570312,
44.600000000000001,4.0699691772460938,
44.699999999999996,4.3331375122070312,
44.799999999999997,4.5324249267578125,
44.899999999999999,4.5758590698242188,
45,4.3663558959960938,
45.100000000000001,3.9907684326171875,
45.199999999999996,3.5972976684570312,
45.299999999999997,3.203826904296875,
45.399999999999999,2.7848052978515625,
45.5,2.4654312133789062,
45.600000000000001,2.284027099609375,
45.699999999999996,2.1818313598632812,
45.799999999999997,2.1332855224609375,
45.899999999999999,2.1051788330078125,
46,2.0872955322265625,
46.100000000000001,2.0847396850585938,
46.199999999999996,2.1026229858398438,
46.299999999999997,2.1307296752929688,
46.399999999999999,2.0975112915039062,
46.5,2.0310821533203125,
46.600000000000001,2.0234146118164062,
46.699999999999996,2.2814712524414062,
46.799999999999997,3.1169586181640625,
46.899999999999999,4.5324249267578125,
47,6.00921630859375,
47.100000000000001,7.2560577392578125,
47.199999999999996,8.5437774658203125,
47.299999999999997,9.882598876953125,
47.399999999999999,11.108993530273438,
47.5,12.15399169921875,
47.599999999999994,13.319068908691406,
47.699999999999996,14.754981994628906,
47.799999999999997,16.469390869140625,
47.899999999999999,18.505722045898438,
48,20.838436126708984,
48.099999999999994,23.475196838378906,
48.199999999999996,26.030197143554688,
48.299999999999997,28.04864501953125,
48.399999999999999,29.055316925048828,
48.5,28.345027923583984,
48.599999999999994,25.562633514404297,
48.699999999999996,21.717357635498047,
48.799999999999997,19.51239013671875,
48.899999999999999,20.061717987060547,
49,21.901317596435547,
49.099999999999994,22.632045745849609,
49.199999999999996,22.220691680908203,
49.299999999999997,22.195140838623047,
49.399999999999999,23.362777709960938,
49.5,25.210041046142578,
49.599999999999994,25.815578460693359,
49.699999999999996,24.389884948730469,
49.799999999999997,21.408203125,
49.899999999999999,18.692237854003906,
50,16.063140869140625,0
50.099999999999994,13.587348937988281,
50.199999999999996,12.184654235839844,
50.299999999999997,11.862724304199219,
50.399999999999999,11.650657653808594,
50.5,11.75030517578125,
50.599999999999994,11.459030151367188,
50.699999999999996,10.988914489746094,
50.799999999999997,10.679756164550781,
50.899999999999999,10.380821228027344,
51,10.728302001953125,
51.099999999999994,10.75640869140625,
51.199999999999996,10.419143676757812,
51.299999999999997,10.666984558105469,
51.399999999999999,11.834617614746094,
51.5,14.775421142578125,
51.599999999999994,18.209342956542969,
51.699999999999996,19.923748016357422,
51.799999999999997,20.603378295898438,
51.899999999999999,21.512958526611328,
52,23.212032318115234,
52.099999999999994,24.821681976318359,
52.199999999999996,23.388328552246094,
52.299999999999997,17.923179626464844,
52.399999999999999,11.446258544921875,
52.5,7.73895263671875,
52.599999999999994,6.8344802856445312,
52.699999999999996,6.755279541015625,
52.799999999999997,6.369476318359375,
52.899999999999999,5.38323974609375,
53,4.1006317138671875,
53.099999999999994,3.0147552490234375,
53.199999999999996,2.2814712524414062,
53.299999999999997,1.8471221923828125,
53.399999999999999,1.5686264038085938,
53.5,1.3335647583007812,
53.599999999999994,1.1853790283203125,
53.699999999999996,1.088287353515625,
53.799999999999997,1.0397415161132812,
53.899999999999999,1.052520751953125,
54,1.124053955078125,
54.099999999999994,1.1955947875976562,
54.199999999999996,1.216033935546875,
54.299999999999997,1.1955947875976562,
54.399999999999999,1.22625732421875,
54.5,1.30035400390625,
54.599999999999994,1.4000015258789062,
54.699999999999996,1.7014846801757812,
54.799999999999997,2.1435012817382812,
54.899999999999999,2.524200439453125,
55,2.8870086669921875,
55.099999999999994,3.2523727416992188,
55.199999999999996,3.553863525390625,
55.299999999999997,3.663726806640625,
55.399999999999999,3.5487518310546875,
55.5,3.3494644165039062,
55.599999999999994,3.1833877563476562,
55.699999999999996,3.0556411743164062,
55.799999999999997,2.9483261108398438,
55.899999999999999,2.88189697265625,
56,2.8767852783203125,
56.099999999999994,2.864013671875,
56.199999999999996,2.80780029296875,
56.299999999999997,2.7899169921875,
56.399999999999999,2.800140380859375,
56.5,2.7975845336914062,
