time,ecg,hr,rr,marker
1679342823055829760,0.279
1679342823063526636,0.258
1679342823071223512,0.244
1679342823078920388,0.244
1679342823086617264,0.23500000000000001
1679342823094314140,0.23700000000000002
1679342823102011016,0.244
1679342823109707892,0.193
1679342823117404768,0.113
1679342823125101644,0.084
1679342823132798520,0.10300000000000001
1679342823140495396,0.199
1679342823148192272,0.429
1679342823155889148,0.622
1679342823163586024,0.454
1679342823171282900,-0.09
1679342823178979776,-0.452
1679342823186676652,-0.323
1679342823194373528,-0.111
1679342823202070404,-0.088
1679342823209767280,-0.10300000000000001
1679342823217464156,-0.084
1679342823225161032,-0.1
1679342823232857908,-0.136
1679342823240554784,-0.134
1679342823248251660,-0.128
1679342823255948536,-0.134,,753
1679342823263645412,-0.122
1679342823271342288,-0.098
1679342823279039164,-0.077
1679342823286736040,-0.065
1679342823294432916,-0.065
1679342823302129792,-0.05
1679342823309826668,-0.014
1679342823317523544,0.012
1679342823325220420,0.027
1679342823332917296,0.05
1679342823340614172,0.075
1679342823348311048,0.092
1679342823356007924,0.107
1679342823363704800,0.136
1679342823371401676,0.166
1679342823379098552,0.164
1679342823386795428,0.124
1679342823394492304,0.079
1679342823402189180,0.065
1679342823409886056,0.058
1679342823417582932,0.039
1679342823425279808,0.029
1679342823432976684,0.016
1679342823440673560,-0.012
1679342823448370436,-0.029
1679342823456067312,-0.061
1679342823463764188,-0.14
1679342823471461064,-0.23700000000000002
1679342823479157940,-0.28800000000000003
1679342823486854816,-0.262
1679342823494551692,-0.218
1679342823502248568,-0.199
1679342823509945444,-0.17400000000000002
1679342823517642320,-0.134
1679342823525339196,-0.115
1679342823533036072,-0.113
1679342823540732948,-0.08600000000000001
1679342823548429824,-0.037
1679342823556126700,-0.006
1679342823563823576,-0.002
1679342823571520452,0.004
1679342823579217328,0.023
1679342823586914204,0.037
1679342823594611080,0.05
1679342823602307956,0.07100000000000001
1679342823610004832,0.092
1679342823617701744,0.092,83
1679342823625398620,0.09
1679342823633095496,0.1
1679342823640792372,0.08600000000000001
1679342823648489248,0.058
1679342823656186124,0.027
1679342823663883000,-0.039
1679342823671579876,-0.088
1679342823679276752,-0.10300000000000001
1679342823686973628,-0.14
1679342823694670504,-0.151
1679342823702367380,-0.117
1679342823710064256,-0.117
1679342823717761132,-0.126
1679342823725458008,-0.084
1679342823733154884,-0.039
1679342823740851760,-0.031
1679342823748548636,-0.014
1679342823756245512,0.018000000000000002
1679342823763942388,0.027
1679342823771639264,0.014
1679342823779336140,0.016
1679342823787033016,0.046
1679342823794729892,0.056
1679342823802426768,0.021
1679342823810123644,-0.004
1679342823817820520,0.025
1679342823825517396,0.039
1679342823833214272,0.004
1679342823840911148,-0.004
1679342823848608024,0.113
1679342823856304900,0.393
1679342823864001776,0.666
1679342823871698652,0.5700000000000001
1679342823879395528,0.044
1679342823887092404,-0.372
1679342823894789280,-0.313
1679342823902486156,-0.092
1679342823910183032,0.0
1679342823917879908,0.029
1679342823925576784,0.063
1679342823933273660,0.079
1679342823940970536,0.088
1679342823948667412,0.1
1679342823956364288,0.113
1679342823964061164,0.115
1679342823971758040,0.109
1679342823979454916,0.088
1679342823987151792,0.039,,737
1679342823994848668,0.008
1679342824002545544,0.018000000000000002
1679342824010242420,0.031
1679342824017939296,0.035
1679342824025636172,0.054
1679342824033333048,0.067
1679342824041029924,0.07100000000000001
1679342824048726800,0.09
1679342824056423676,0.126
1679342824064120552,0.155
1679342824071817428,0.157
1679342824079514304,0.147
1679342824087211180,0.153
1679342824094908056,0.17
1679342824102604932,0.164
1679342824110301808,0.157
1679342824117998684,0.155
1679342824125695560,0.124
1679342824133392436,0.067
1679342824141089312,0.039
1679342824148786188,0.046
1679342824156483064,0.056
1679342824164179940,0.029
1679342824171876816,-0.035
1679342824179573728,-0.069
1679342824187270534,-0.056
1679342824194967340,-0.05
1679342824202664146,-0.037
1679342824210360952,-0.014
1679342824218057758,-0.046
1679342824225754564,-0.113
1679342824233451370,-0.117
1679342824241148176,-0.075
1679342824248844982,-0.069
1679342824256541788,-0.077
1679342824264238594,-0.063
1679342824271935400,-0.046
1679342824279632206,-0.035
1679342824287329012,-0.029
1679342824295025818,-0.012
1679342824302722624,-0.018000000000000002
1679342824310419430,-0.035
1679342824318116236,-0.031
1679342824325813042,-0.018000000000000002
1679342824333509848,0.044
1679342824341206654,0.117
1679342824348903460,0.107
1679342824356600266,0.096
1679342824364297072,0.128
1679342824371993878,0.124
1679342824379690684,0.05
1679342824387387490,0.0
1679342824395084296,0.048
1679342824402781102,0.092
1679342824410477908,0.065
1679342824418174714,0.10300000000000001
1679342824425871520,0.185
1679342824433568326,0.157
1679342824441265132,0.122
1679342824448961938,0.168
1679342824456658744,0.216
1679342824464355550,0.25
1679342824472052356,0.271
1679342824479749162,0.294
1679342824487445968,0.292
1679342824495142774,0.244
1679342824502839580,0.246
1679342824510536386,0.298
1679342824518233192,0.296
1679342824525929998,0.273
1679342824533626804,0.281
1679342824541323610,0.279
1679342824549020416,0.256
1679342824556717222,0.233
1679342824564414028,0.178
1679342824572110834,0.126
1679342824579807640,0.265
1679342824587504446,0.643
1679342824595201252,0.797
1679342824602898058,0.401
1679342824610594864,-0.092
1679342824618291670,-0.193
1679342824625988476,-0.096
1679342824633685282,-0.061
1679342824641382088,-0.014
1679342824649078894,0.058
1679342824656775700,0.134
1679342824664472506,0.265
1679342824672169312,0.328
1679342824679866118,0.265
1679342824687562924,0.25
1679342824695259730,0.3
1679342824702956536,0.29
1679342824710653342,0.281
1679342824718350148,0.305,,729
1679342824726046954,0.262
1679342824733743760,0.183
1679342824741440624,0.138,83
1679342824749137570,0.14
1679342824756834516,0.164
1679342824764531462,0.17
1679342824772228408,0.21
1679342824779925354,0.212
1679342824787622300,-0.006
1679342824795319246,-0.309
1679342824803016192,-0.21
1679342824810713138,0.178
1679342824818410084,0.20800000000000002
1679342824826107030,0.006
1679342824833803976,0.05
1679342824841500922,0.168
1679342824849197868,0.09
1679342824856894814,-0.008
1679342824864591760,-0.035
1679342824872288706,-0.107
1679342824879985652,-0.189
1679342824887682598,-0.189
1679342824895379544,-0.145
1679342824903076490,-0.138
1679342824910773436,-0.14300000000000002
1679342824918470382,-0.124
1679342824926167328,-0.1
1679342824933864274,-0.082
1679342824941561220,-0.054
1679342824949258166,-0.035
1679342824956955112,-0.031
1679342824964652058,-0.035
1679342824972349004,-0.033
1679342824980045950,0.012
1679342824987742896,0.067
1679342824995439842,0.07100000000000001
1679342825003136788,0.054
1679342825010833734,0.063
1679342825018530680,0.098
1679342825026227626,0.122
1679342825033924572,0.11900000000000001
1679342825041621518,0.126
1679342825049318464,0.14300000000000002
1679342825057015410,0.14300000000000002
1679342825064712356,0.145
1679342825072409302,0.164
1679342825080106248,0.183
1679342825087803194,0.183
1679342825095500140,0.166
1679342825103197086,0.17
1679342825110894032,0.18
1679342825118590978,0.145
1679342825126287924,0.1
1679342825133984870,0.058
1679342825141681816,-0.025
1679342825149378762,-0.098
1679342825157075708,-0.17200000000000001
1679342825164772654,-0.265
1679342825172469600,-0.3
1679342825180166546,-0.307
1679342825187863492,-0.315
1679342825195560438,-0.28300000000000003
1679342825203257384,-0.233
1679342825210954330,-0.199
1679342825218651276,-0.18
1679342825226348222,-0.17200000000000001
1679342825234045168,-0.17
1679342825241742114,-0.166
1679342825249439060,-0.14
1679342825257136006,-0.105
1679342825264832952,-0.082
1679342825272529898,-0.07100000000000001
1679342825280226844,-0.065
1679342825287923790,-0.073
1679342825295620736,-0.1
1679342825303317694,-0.044,83
1679342825311014570,0.227
1679342825318711446,0.586
1679342825326408322,0.603
1679342825334105198,0.033
1679342825341802074,-0.561
1679342825349498950,-0.5630000000000001
1679342825357195826,-0.3
1679342825364892702,-0.225
1679342825372589578,-0.216
1679342825380286454,-0.159
1679342825387983330,-0.138
1679342825395680206,-0.145
1679342825403377082,-0.113
1679342825411073958,-0.077
1679342825418770834,-0.075
1679342825426467710,-0.07100000000000001,,707
1679342825434164586,-0.039
1679342825441861462,0.0
1679342825449558338,0.012
1679342825457255214,-0.012
1679342825464952090,-0.029
1679342825472648966,-0.025
1679342825480345842,-0.046
1679342825488042718,-0.065
1679342825495739594,-0.035
1679342825503436470,0.002
1679342825511133346,0.0
1679342825518830222,-0.006
1679342825526527098,0.023
1679342825534223974,0.052000000000000005
1679342825541920850,0.05
1679342825549617726,0.046
1679342825557314602,0.046
1679342825565011478,0.039
1679342825572708354,0.025
1679342825580405230,0.016
1679342825588102106,0.014
1679342825595798982,0.004
1679342825603495858,-0.035
1679342825611192734,-0.079
1679342825618889610,-0.088
1679342825626586486,-0.07100000000000001
1679342825634283362,-0.069
1679342825641980238,-0.069
1679342825649677114,-0.052000000000000005
1679342825657373990,-0.031
1679342825665070866,-0.031
1679342825672767742,-0.07100000000000001
1679342825680464618,-0.124
1679342825688161494,-0.134
1679342825695858370,-0.124
1679342825703555246,-0.113
1679342825711252122,-0.08600000000000001
1679342825718948998,-0.063
1679342825726645874,-0.05
1679342825734342750,-0.033
1679342825742039626,-0.021
1679342825749736502,-0.016
1679342825757433378,0.0
1679342825765130254,0.023
1679342825772827130,0.046
1679342825780524006,0.063
1679342825788220882,0.056
1679342825795917758,0.061
1679342825803614634,0.09
1679342825811311510,0.107
1679342825819008386,0.111
1679342825826705262,0.124
1679342825834402138,0.13
1679342825842099014,0.124
1679342825849795890,0.107
1679342825857492766,0.09
1679342825865189682,0.088
1679342825872886558,0.09
1679342825880583434,0.088
1679342825888280310,0.113
1679342825895977186,0.166
1679342825903674062,0.195
1679342825911370938,0.197
1679342825919067814,0.216
1679342825926764690,0.212
1679342825934461566,0.157
1679342825942158442,0.138
1679342825949855318,0.17400000000000002
1679342825957552194,0.17200000000000001
1679342825965249070,0.13
1679342825972945946,0.117
1679342825980642822,0.138
1679342825988339698,0.149
1679342825996036574,0.147
1679342826003733450,0.168
1679342826011430326,0.193
1679342826019127202,0.166
1679342826026824078,0.092
1679342826034520954,0.082
1679342826042217830,0.246
1679342826049914706,0.58
1679342826057611582,0.936
1679342826065308458,0.99
1679342826073005334,0.546
1679342826080702210,0.1
1679342826088399086,0.166
1679342826096095962,0.387
1679342826103792838,0.376
1679342826111489714,0.315
1679342826119186590,0.326
1679342826126883466,0.34,,701
1679342826134580342,0.34
1679342826142277218,0.338
1679342826149974094,0.338
1679342826157670970,0.342
1679342826165367846,0.34900000000000003
1679342826173064722,0.334
1679342826180761598,0.275
1679342826188458474,0.218
1679342826196155350,0.197
1679342826203852226,0.168
1679342826211549102,0.13
1679342826219245978,0.13
1679342826226942854,0.176
1679342826234639730,0.231
1679342826242336606,0.267
1679342826250033482,0.262
1679342826257730358,0.254
1679342826265427234,0.256
1679342826273124110,0.216
1679342826280820986,0.063
1679342826288517862,-0.157
1679342826296214738,-0.225
1679342826303911614,-0.048
1679342826311608490,0.164
1679342826319305366,0.216
1679342826327002242,0.079
1679342826334699118,-0.105
1679342826342395994,-0.056
1679342826350092870,0.138
1679342826357789746,0.18
1679342826365486622,0.132
1679342826373183498,0.147
1679342826380880374,0.159
1679342826388577250,0.134
1679342826396274126,0.14300000000000002
1679342826403971002,0.10300000000000001
1679342826411667878,-0.128
1679342826419364754,-0.155
1679342826427061666,0.229,83
1679342826434758333,0.35100000000000003
1679342826442455000,0.161
1679342826450151667,0.193
1679342826457848334,0.3
1679342826465545001,0.273
1679342826473241668,0.256
1679342826480938335,0.277
1679342826488635002,0.271
1679342826496331669,0.258
1679342826504028336,0.212
1679342826511725003,0.166
1679342826519421670,0.17200000000000001
1679342826527118337,0.17400000000000002
1679342826534815004,0.147
1679342826542511671,0.157
1679342826550208338,0.185
1679342826557905005,0.191
1679342826565601672,0.187
1679342826573298339,0.191
1679342826580995006,0.20600000000000002
1679342826588691673,0.214
1679342826596388340,0.191
1679342826604085007,0.10300000000000001
1679342826611781674,0.069
1679342826619478341,0.20400000000000001
1679342826627175008,0.275
1679342826634871675,0.212
1679342826642568342,0.23700000000000002
1679342826650265009,0.294
1679342826657961676,0.269
1679342826665658343,0.254
1679342826673355010,0.28300000000000003
1679342826681051677,0.28800000000000003
1679342826688748344,0.244
1679342826696445011,0.222
1679342826704141678,0.244
1679342826711838345,0.229
1679342826719535012,0.191
1679342826727231679,0.17400000000000002
1679342826734928346,0.147
1679342826742625013,0.122
1679342826750321680,0.11900000000000001
1679342826758018347,0.11900000000000001
1679342826765715014,0.113
1679342826773411681,0.115
1679342826781108348,0.113
1679342826788805015,0.098
1679342826796501682,0.153
1679342826804198349,0.37
1679342826811895016,0.6940000000000001
1679342826819591683,0.788
1679342826827288350,0.376
1679342826834985017,-0.153,,710
1679342826842681684,-0.241
1679342826850378351,-0.044
1679342826858075018,0.065
1679342826865771685,0.079
1679342826873468352,0.105
1679342826881165019,0.132
1679342826888861686,0.134
1679342826896558353,0.107
1679342826904255020,0.075
1679342826911951687,0.058
1679342826919648354,0.035
1679342826927345021,0.016
1679342826935041688,0.031
1679342826942738355,0.035
1679342826950435022,0.018000000000000002
1679342826958131689,0.016
1679342826965828356,0.048
1679342826973525023,0.098
1679342826981221690,0.098
1679342826988918390,0.067
1679342826996615057,0.096
1679342827004311724,0.151
1679342827012008391,0.155
1679342827019705058,0.153
1679342827027401725,0.178
1679342827035098392,0.166
1679342827042795059,0.10300000000000001
1679342827050491726,0.07100000000000001
1679342827058188393,0.088
1679342827065885060,0.077
1679342827073581727,0.033
1679342827081278394,-0.01
1679342827088975061,-0.061
1679342827096671728,-0.098
1679342827104368395,-0.10300000000000001
1679342827112065062,-0.088
1679342827119761729,-0.079
1679342827127458396,-0.079
1679342827135155063,-0.079
1679342827142851730,-0.056
1679342827150548397,-0.014
1679342827158245064,0.006
1679342827165941731,0.004
1679342827173638398,0.01
1679342827181335065,0.039
1679342827189031732,0.039
1679342827196728399,-0.008
1679342827204425066,-0.031
1679342827212121733,-0.008
1679342827219818400,-0.01
1679342827227515067,-0.023
1679342827235211734,0.006
1679342827242908401,0.042
1679342827250605068,0.048
1679342827258301735,0.048
1679342827265998402,0.058
1679342827273695069,0.069
1679342827281391736,0.079
1679342827289088403,0.094
1679342827296785070,0.11900000000000001
1679342827304481737,0.136
1679342827312178404,0.132
1679342827319875071,0.132
1679342827327571738,0.14300000000000002
1679342827335268405,0.113
1679342827342965072,0.073
1679342827350661739,0.088
1679342827358358406,0.117
1679342827366055073,0.113
1679342827373751740,0.113
1679342827381448407,0.138
1679342827389145074,0.164
1679342827396841741,0.168
1679342827404538408,0.161
1679342827412235075,0.166
1679342827419931742,0.185
1679342827427628409,0.187
1679342827435325076,0.159
1679342827443021743,0.145
1679342827450718410,0.155
1679342827458415077,0.164
1679342827466111744,0.166
1679342827473808411,0.187
1679342827481505078,0.216
1679342827489201745,0.212
1679342827496898412,0.183
1679342827504595079,0.17
1679342827512291746,0.18
1679342827519988413,0.183
1679342827527685080,0.18
1679342827535381747,0.189
1679342827543078414,0.193
1679342827550775116,0.189,83
1679342827558471992,0.17200000000000001
1679342827566168868,0.164,,728
1679342827573865744,0.231
1679342827581562620,0.435
1679342827589259496,0.706
1679342827596956372,0.721
1679342827604653248,0.23500000000000001
1679342827612350124,-0.336
1679342827620047000,-0.435
1679342827627743876,-0.225
1679342827635440752,-0.132
1679342827643137628,-0.14300000000000002
1679342827650834504,-0.11900000000000001
1679342827658531380,-0.09
1679342827666228256,-0.08600000000000001
1679342827673925132,-0.09
1679342827681622008,-0.094
1679342827689318884,-0.079
1679342827697015760,-0.084
1679342827704712636,-0.13
1679342827712409512,-0.147
1679342827720106388,-0.115
1679342827727803264,-0.109
1679342827735500140,-0.11900000000000001
1679342827743197016,-0.09
1679342827750893892,-0.046
1679342827758590768,-0.016
1679342827766287644,0.004
1679342827773984520,0.016
1679342827781681396,0.029
1679342827789378272,0.054
1679342827797075148,0.088
1679342827804772024,0.126
1679342827812468900,0.149
1679342827820165776,0.13
1679342827827862652,0.082
1679342827835559528,0.069
1679342827843256404,0.08600000000000001
1679342827850953280,0.065
1679342827858650156,0.029
1679342827866347032,0.016
1679342827874043908,0.01
1679342827881740784,-0.006
1679342827889437660,-0.008
1679342827897134536,0.016
1679342827904831412,0.035
1679342827912528288,0.027
1679342827920225164,0.031
1679342827927922040,0.069
1679342827935618916,0.1
1679342827943315792,0.105
1679342827951012668,0.111
1679342827958709544,0.126
1679342827966406420,0.138
1679342827974103296,0.151
1679342827981800172,0.17
1679342827989497048,0.193
1679342827997193924,0.20800000000000002
1679342828004890800,0.197
1679342828012587676,0.197
1679342828020284552,0.22
1679342828027981428,0.233
1679342828035678304,0.231
1679342828043375180,0.233
1679342828051072056,0.244
1679342828058768932,0.252
1679342828066465808,0.256
1679342828074162684,0.23700000000000002
1679342828081859560,0.22
1679342828089556436,0.218
1679342828097253312,0.20600000000000002
1679342828104950188,0.20400000000000001
1679342828112647100,0.233
1679342828120343976,0.244
1679342828128040852,0.233
1679342828135737728,0.233
1679342828143434604,0.20600000000000002
1679342828151131480,0.126
1679342828158828356,0.07100000000000001
1679342828166525232,0.082
1679342828174222108,0.096
1679342828181918984,0.077
1679342828189615860,0.065
1679342828197312736,0.067
1679342828205009612,0.025
1679342828212706488,-0.052000000000000005
1679342828220403364,-0.07100000000000001
1679342828228100240,-0.039
1679342828235797116,-0.044
1679342828243493992,-0.05
1679342828251190868,-0.023
1679342828258887744,0.012
1679342828266584620,0.033
1679342828274281496,0.033
1679342828281978372,0.014
1679342828289675248,0.012
1679342828297372124,0.018000000000000002,,729
1679342828305069000,-0.006
1679342828312765876,-0.058
1679342828320462752,-0.117
1679342828328159628,-0.18
1679342828335856504,-0.212
1679342828343553380,-0.20800000000000002
1679342828351250256,-0.216
1679342828358947132,-0.178
1679342828366644008,0.035
1679342828374340884,0.357
1679342828382037760,0.435
1679342828389734636,0.025
1679342828397431512,-0.464
1679342828405128388,-0.494
1679342828412825264,-0.267
1679342828420522140,-0.17400000000000002
1679342828428219016,-0.151
1679342828435915892,-0.092
1679342828443612768,-0.063
1679342828451309644,-0.063
1679342828459006520,-0.042
1679342828466703396,-0.016
1679342828474400272,-0.008
1679342828482097148,-0.004
1679342828489794024,0.006
1679342828497490900,0.027
1679342828505187776,0.054
1679342828512884652,0.067
1679342828520581528,0.08600000000000001
1679342828528278404,0.126
1679342828535975280,0.161
1679342828543672156,0.178
1679342828551369032,0.195
1679342828559065908,0.17
1679342828566762784,0.098
1679342828574459660,0.107
1679342828582156536,0.195
1679342828589853412,0.227
1679342828597550288,0.214
1679342828605247164,0.21
1679342828612944040,0.20600000000000002
1679342828620640916,0.21
1679342828628337792,0.218
1679342828636034668,0.20400000000000001
1679342828643731544,0.185
1679342828651428420,0.164
1679342828659125296,0.134
1679342828666822172,0.115
1679342828674519084,0.126,83
1679342828682216030,0.151
1679342828689912976,0.149
1679342828697609922,0.115
1679342828705306868,0.079
1679342828713003814,0.031
1679342828720700760,-0.037
1679342828728397706,-0.082
1679342828736094652,-0.067
1679342828743791598,-0.058
1679342828751488544,-0.073
1679342828759185490,-0.061
1679342828766882436,-0.023
1679342828774579382,-0.008
1679342828782276328,-0.004
1679342828789973274,0.008
1679342828797670220,0.021
1679342828805367166,0.016
1679342828813064112,0.0
1679342828820761058,0.0
1679342828828458004,0.014
1679342828836154950,0.014
1679342828843851896,0.004
1679342828851548842,0.016
1679342828859245788,0.044
1679342828866942734,0.029
1679342828874639680,-0.012
1679342828882336626,-0.016
1679342828890033572,0.0
1679342828897730518,-0.002
1679342828905427464,0.004
1679342828913124410,0.027
1679342828920821356,0.042
1679342828928518302,0.042
1679342828936215248,0.035
1679342828943912194,-0.054
1679342828951609140,-0.115
1679342828959306086,0.069
1679342828967003032,0.195
1679342828974699978,0.105
1679342828982396924,0.061
1679342828990093870,-0.056
1679342828997790816,-0.241
1679342829005487762,-0.136
1679342829013184708,-0.037
1679342829020881654,-0.218
1679342829028578600,-0.269
1679342829036275546,-0.17200000000000001,,738
1679342829043972492,-0.20400000000000001
1679342829051669438,-0.277
1679342829059366384,-0.309
1679342829067063330,-0.332
1679342829074760276,-0.336
1679342829082457222,-0.33
1679342829090154168,-0.326
1679342829097851114,-0.298
1679342829105548060,-0.277
1679342829113245006,-0.307
1679342829120941952,-0.292
1679342829128638898,-0.09
1679342829136335844,0.262
1679342829144032790,0.47100000000000003
1679342829151729736,0.20600000000000002
1679342829159426682,-0.35100000000000003
1679342829167123628,-0.595
1679342829174820574,-0.41400000000000003
1679342829182517520,-0.191
1679342829190214466,-0.069
1679342829197911412,-0.027
1679342829205608358,-0.084
1679342829213305304,-0.14
1679342829221002250,-0.145
1679342829228699196,-0.132
1679342829236396156,-0.05,83
1679342829244093102,0.061
1679342829251790048,0.058
1679342829259486994,0.004
1679342829267183940,-0.029
1679342829274880886,-0.10300000000000001
1679342829282577832,-0.128
1679342829290274778,-0.088
1679342829297971724,-0.105
1679342829305668670,-0.126
1679342829313365616,-0.096
1679342829321062562,-0.096
1679342829328759508,-0.094
1679342829336456454,-0.021
1679342829344153400,0.014
1679342829351850346,0.023
1679342829359547292,0.201
1679342829367244238,0.41600000000000004
1679342829374941184,0.41000000000000003
1679342829382638130,0.313
1679342829390335076,0.279
1679342829398032022,0.258
1679342829405728968,0.20600000000000002
1679342829413425914,0.14300000000000002
1679342829421122860,0.09
1679342829428819806,0.054
1679342829436516752,0.021
1679342829444213698,-0.025
1679342829451910644,-0.058
1679342829459607590,-0.027
1679342829467304536,0.044
1679342829475001482,0.073
1679342829482698428,0.088
1679342829490395374,0.122
1679342829498092320,0.147
1679342829505789266,0.183
1679342829513486212,0.241
1679342829521183158,0.271
1679342829528880104,0.262
1679342829536577050,0.262
1679342829544273996,0.265
1679342829551970942,0.23700000000000002
1679342829559667888,0.214
1679342829567364834,0.212
1679342829575061780,0.216
1679342829582758726,0.222
1679342829590455672,0.22
1679342829598152618,0.201
1679342829605849564,0.189
1679342829613546510,0.193
1679342829621243456,0.185
1679342829628940402,0.17400000000000002
1679342829636637348,0.187
1679342829644334294,0.20800000000000002
1679342829652031240,0.20800000000000002
1679342829659728186,0.199
1679342829667425132,0.201
1679342829675122078,0.20600000000000002
1679342829682819024,0.199
1679342829690515970,0.195
1679342829698212916,0.20800000000000002
1679342829705909862,0.231
1679342829713606808,0.22
1679342829721303754,0.155
1679342829729000700,0.092
1679342829736697646,0.088
1679342829744394592,0.107
1679342829752091538,0.111
1679342829759788484,0.1
1679342829767485430,0.084
1679342829775182376,0.073
1679342829782879322,0.056
1679342829790576268,0.021,,756
1679342829798273226,-0.037
1679342829805969963,-0.096
1679342829813666700,-0.107
1679342829821363437,-0.098
1679342829829060174,-0.111
1679342829836756911,-0.122
1679342829844453648,-0.111
1679342829852150385,-0.13
1679342829859847122,-0.21
1679342829867543859,-0.222
1679342829875240596,0.014
1679342829882937333,0.395
1679342829890634070,0.523
1679342829898330807,0.115
1679342829906027544,-0.467
1679342829913724281,-0.586
1679342829921421018,-0.338
1679342829929117755,-0.178
1679342829936814492,-0.132
1679342829944511229,-0.096
1679342829952207966,-0.084
1679342829959904703,-0.07100000000000001
1679342829967601440,-0.029
1679342829975298177,0.002
1679342829982994914,0.01
1679342829990691651,0.014
1679342829998388388,0.039
1679342830006085125,0.073
1679342830013781862,0.09
1679342830021478599,0.109
1679342830029175336,0.14
1679342830036872073,0.149
1679342830044568810,0.126
1679342830052265547,0.128
1679342830059962284,0.178
1679342830067659021,0.227
1679342830075355758,0.23900000000000002
1679342830083052495,0.256
1679342830090749232,0.29
1679342830098445969,0.317
1679342830106142706,0.326
1679342830113839443,0.334
1679342830121536180,0.338
1679342830129232917,0.317
1679342830136929654,0.28300000000000003
1679342830144626391,0.275
1679342830152323128,0.275
1679342830160019865,0.267
1679342830167716602,0.254
1679342830175413339,0.241
1679342830183110076,0.241
1679342830190806813,0.246
1679342830198503550,0.229
1679342830206200287,0.092
1679342830213897024,-0.094
1679342830221593761,0.039
1679342830229290498,0.298
1679342830236987235,0.246
1679342830244683972,0.153
1679342830252380709,0.227
1679342830260077446,0.241
1679342830267774183,0.20400000000000001
1679342830275470920,0.231
1679342830283167657,0.244
1679342830290864394,0.189
1679342830298561131,0.183
1679342830306257868,0.229
1679342830313954605,0.193
1679342830321651342,0.128
1679342830329348079,0.161
1679342830337044816,0.191
1679342830344741553,0.13
1679342830352438290,0.079
1679342830360135038,0.077,82
1679342830367831914,0.079
1679342830375528790,0.088
1679342830383225666,0.113
1679342830390922542,0.136
1679342830398619418,0.13
1679342830406316294,0.122
1679342830414013170,0.166
1679342830421710046,0.227
1679342830429406922,0.199
1679342830437103798,0.128
1679342830444800674,0.124
1679342830452497550,0.138
1679342830460194426,0.117
1679342830467891302,0.107
1679342830475588178,0.126
1679342830483285054,0.147
1679342830490981930,0.149
1679342830498678806,0.128
1679342830506375682,0.111
1679342830514072558,0.117
1679342830521769434,0.09
1679342830529466310,0.016
1679342830537163186,-0.042
1679342830544860062,-0.077
1679342830552556938,-0.107
1679342830560253814,-0.107
1679342830567950690,-0.094,,776
1679342830575647566,-0.084
1679342830583344442,-0.069
1679342830591041318,-0.075
1679342830598738194,-0.098
1679342830606435070,-0.065
1679342830614131946,0.115
1679342830621828822,0.464
1679342830629525698,0.736
1679342830637222574,0.509
1679342830644919450,-0.096
1679342830652616326,-0.462
1679342830660313202,-0.424
1679342830668010078,-0.14300000000000002
1679342830675706954,0.132
1679342830683403830,-0.046
1679342830691100706,-0.393
1679342830698797582,-0.33
1679342830706494458,-0.159
1679342830714191334,-0.115
1679342830721888210,-0.031
1679342830729585086,-0.05
1679342830737281962,-0.033
1679342830744978838,0.155
1679342830752675714,0.176
1679342830760372590,0.084
1679342830768069466,0.044
1679342830775766342,-0.197
1679342830783463218,-0.334
1679342830791160094,0.033
1679342830798856970,0.262
1679342830806553846,0.08600000000000001
1679342830814250722,0.044
1679342830821947598,0.149
1679342830829644474,0.193
1679342830837341350,0.222
1679342830845038226,0.246
1679342830852735102,0.241
1679342830860431978,0.23900000000000002
1679342830868128854,0.225
1679342830875825730,0.197
1679342830883522606,0.216
1679342830891219482,0.252
1679342830898916358,0.246
1679342830906613234,0.227
1679342830914310110,0.201
1679342830922007022,0.176
1679342830929703898,0.176
1679342830937400774,0.191
1679342830945097650,0.193
1679342830952794526,0.197
1679342830960491402,0.20800000000000002
1679342830968188278,0.187
1679342830975885154,0.132
1679342830983582030,0.105
1679342830991278906,0.128
1679342830998975782,0.149
1679342831006672658,0.124
1679342831014369534,0.046
1679342831022066410,-0.039
1679342831029763286,-0.088
1679342831037460162,-0.018000000000000002
1679342831045157038,0.115
1679342831052853914,0.136
1679342831060550790,0.088
1679342831068247666,0.105
1679342831075944542,0.134
1679342831083641418,0.122
1679342831091338294,0.084
1679342831099035170,0.025
1679342831106732046,0.014
1679342831114428922,0.082
1679342831122125798,0.1
1679342831129822674,0.082
1679342831137519550,0.109
1679342831145216426,0.122
1679342831152913302,0.1
1679342831160610178,0.105
1679342831168307054,0.14
1679342831176003930,0.159
1679342831183700806,0.147
1679342831191397682,0.134
1679342831199094558,0.151
1679342831206791434,0.17
1679342831214488310,0.166
1679342831222185186,0.166
1679342831229882062,0.157
1679342831237578938,0.092
1679342831245275814,0.037
1679342831252972690,0.039
1679342831260669566,0.033
1679342831268366442,0.0
1679342831276063318,-0.056
1679342831283760194,-0.11900000000000001
1679342831291457070,-0.138
1679342831299153946,-0.134
1679342831306850822,-0.14300000000000002
1679342831314547698,-0.138
1679342831322244574,-0.128
1679342831329941450,-0.14
1679342831337638326,-0.149
1679342831345335202,-0.132
1679342831353032078,-0.134,,785
1679342831360728954,-0.107
1679342831368425830,0.098
1679342831376122706,0.439
1679342831383819582,0.5760000000000001
1679342831391516458,0.20800000000000002
1679342831399213334,-0.323
1679342831406910210,-0.41600000000000004
1679342831414607086,-0.183
1679342831422303962,-0.063
1679342831430000838,-0.039
1679342831437697714,0.012
1679342831445394590,0.048
1679342831453091466,0.052000000000000005
1679342831460788342,0.061
1679342831468485218,0.07100000000000001
1679342831476182094,0.077
1679342831483879006,0.092,81
1679342831491575882,0.113
1679342831499272758,0.145
1679342831506969634,0.166
1679342831514666510,0.157
1679342831522363386,0.134
1679342831530060262,0.136
1679342831537757138,0.138
1679342831545454014,0.109
1679342831553150890,0.098
1679342831560847766,0.11900000000000001
1679342831568544642,0.13
1679342831576241518,0.136
1679342831583938394,0.17200000000000001
1679342831591635270,0.20600000000000002
1679342831599332146,0.21
1679342831607029022,0.199
1679342831614725898,0.195
1679342831622422774,0.195
1679342831630119650,0.18
1679342831637816526,0.17200000000000001
1679342831645513402,0.17
1679342831653210278,0.153
1679342831660907154,0.126
1679342831668604030,0.109
1679342831676300906,0.075
1679342831683997782,0.031
1679342831691694658,0.027
1679342831699391534,0.042
1679342831707088410,0.05
1679342831714785286,0.073
1679342831722482162,0.084
1679342831730179038,0.021
1679342831737875914,-0.067
1679342831745572790,-0.11900000000000001
1679342831753269666,-0.17
1679342831760966542,-0.21
1679342831768663418,-0.216
1679342831776360294,-0.214
1679342831784057170,-0.225
1679342831791754046,-0.231
1679342831799450922,-0.218
1679342831807147798,-0.20400000000000001
1679342831814844674,-0.197
1679342831822541550,-0.17200000000000001
1679342831830238426,-0.136
1679342831837935302,-0.132
1679342831845632178,-0.138
1679342831853329054,-0.10300000000000001
1679342831861025930,-0.069
1679342831868722806,-0.092
1679342831876419682,-0.124
1679342831884116558,-0.111
1679342831891813434,-0.088
1679342831899510310,-0.08600000000000001
1679342831907207186,-0.07100000000000001
1679342831914904062,-0.033
1679342831922600938,-0.002
1679342831930297814,0.0
1679342831937994690,0.008
1679342831945691566,0.082
1679342831953388442,0.20800000000000002
1679342831961085318,0.319
1679342831968782194,0.338
1679342831976479070,0.298
1679342831984175946,0.298
1679342831991872822,0.315
1679342831999569698,0.313
1679342832007266574,0.323
1679342832014963450,0.317
1679342832022660326,0.271
1679342832030357202,0.225
1679342832038054078,0.20400000000000001
1679342832045750990,0.183
1679342832053447866,0.14300000000000002
1679342832061144742,0.094
1679342832068841618,0.069
1679342832076538494,0.035
1679342832084235370,-0.023
1679342832091932246,-0.052000000000000005
1679342832099629122,-0.042
1679342832107325998,-0.065
1679342832115022874,-0.069,,765
1679342832122719750,0.115
1679342832130416626,0.458
1679342832138113502,0.614
1679342832145810378,0.275
1679342832153507254,-0.262
1679342832161204130,-0.41000000000000003
1679342832168901006,-0.21
1679342832176597882,-0.061
1679342832184294758,-0.008
1679342832191991634,0.039
1679342832199688510,0.048
1679342832207385386,0.035
1679342832215082262,0.052000000000000005
1679342832222779138,0.077
1679342832230476014,0.08600000000000001
1679342832238172890,0.092
1679342832245869766,0.058
1679342832253566642,-0.025
1679342832261263518,-0.08600000000000001
1679342832268960394,-0.082
1679342832276657270,-0.05
1679342832284354146,-0.027
1679342832292051022,-0.018000000000000002
1679342832299747898,-0.006
1679342832307444774,0.023
1679342832315141650,0.063
1679342832322838526,0.088
1679342832330535402,0.113
1679342832338232278,0.147
1679342832345929154,0.161
1679342832353626030,0.159
1679342832361322906,0.17200000000000001
1679342832369019782,0.197
1679342832376716658,0.20800000000000002
1679342832384413534,0.199
1679342832392110410,0.185
1679342832399807286,0.17
1679342832407504162,0.159
1679342832415201038,0.149
1679342832422897914,0.147
1679342832430594790,0.153
1679342832438291666,0.14300000000000002
1679342832445988542,0.13
1679342832453685418,0.151
1679342832461382294,0.187
1679342832469079170,0.199
1679342832476776046,0.197
1679342832484472922,0.20600000000000002
1679342832492169798,0.227
1679342832499866674,0.23500000000000001
1679342832507563550,0.20800000000000002
1679342832515260426,0.189
1679342832522957302,0.20800000000000002
1679342832530654178,0.21
1679342832538351054,0.191
1679342832546047930,0.20800000000000002
1679342832553744806,0.244
1679342832561441682,0.248
1679342832569138558,0.231
1679342832576835434,0.252
1679342832584532310,0.271
1679342832592229186,0.262
1679342832599926062,0.281
1679342832607622976,0.317,81
1679342832615319852,0.315
1679342832623016728,0.279
1679342832630713604,0.244
1679342832638410480,0.241
1679342832646107356,0.241
1679342832653804232,0.20400000000000001
1679342832661501108,0.161
1679342832669197984,0.153
1679342832676894860,0.134
1679342832684591736,0.077
1679342832692288612,0.046
1679342832699985488,0.061
1679342832707682364,0.058
1679342832715379240,0.033
1679342832723076116,0.033
1679342832730772992,0.058
1679342832738469868,0.063
1679342832746166744,0.029
1679342832753863620,-0.031
1679342832761560496,-0.069
1679342832769257372,-0.061
1679342832776954248,-0.044
1679342832784651124,-0.027
1679342832792348000,0.002
1679342832800044876,0.0
1679342832807741752,-0.033
1679342832815438628,-0.061
1679342832823135504,-0.079
1679342832830832380,-0.113
1679342832838529256,-0.151
1679342832846226132,-0.168
1679342832853923008,-0.178
1679342832861619884,-0.199,,745
1679342832869316760,-0.225
1679342832877013636,-0.199
1679342832884710512,-0.031
1679342832892407388,0.273
1679342832900104264,0.483
1679342832907801140,0.265
1679342832915498016,-0.275
1679342832923194892,-0.536
1679342832930891768,-0.359
1679342832938588644,-0.164
1679342832946285520,-0.11900000000000001
1679342832953982396,-0.096
1679342832961679272,-0.063
1679342832969376148,-0.029
1679342832977073024,0.042
1679342832984769900,0.094
1679342832992466776,0.058
1679342833000163652,0.016
1679342833007860528,0.023
1679342833015557404,0.031
1679342833023254280,0.042
1679342833030951156,0.07100000000000001
1679342833038648032,0.084
1679342833046344908,0.077
1679342833054041784,0.1
1679342833061738660,0.145
1679342833069435536,0.168
1679342833077132412,0.178
1679342833084829288,0.195
1679342833092526164,0.222
1679342833100223040,0.246
1679342833107919916,0.26
1679342833115616792,0.281
1679342833123313668,0.296
1679342833131010544,0.277
1679342833138707420,0.26
1679342833146404296,0.275
1679342833154101172,0.273
1679342833161798048,0.25
1679342833169494960,0.233
1679342833177191627,0.218
1679342833184888294,0.199
1679342833192584961,0.191
1679342833200281628,0.191
1679342833207978295,0.20800000000000002
1679342833215674962,0.20800000000000002
1679342833223371629,0.147
1679342833231068296,0.088
1679342833238764963,0.092
1679342833246461630,0.077
1679342833254158297,0.002
1679342833261854964,-0.054
1679342833269551631,-0.058
1679342833277248298,-0.054
1679342833284944965,-0.073
1679342833292641632,-0.088
1679342833300338299,-0.079
1679342833308034966,-0.05
1679342833315731633,-0.048
1679342833323428300,-0.061
1679342833331124967,-0.027
1679342833338821634,0.031
1679342833346518301,0.07100000000000001
1679342833354214968,0.073
1679342833361911635,0.07100000000000001
1679342833369608302,0.077
1679342833377304969,0.077
1679342833385001636,0.088
1679342833392698303,0.124
1679342833400394970,0.136
1679342833408091637,0.111
1679342833415788304,0.096
1679342833423484971,0.09
1679342833431181638,0.07100000000000001
1679342833438878305,0.067
1679342833446574972,0.084
1679342833454271639,0.084
1679342833461968306,0.067
1679342833469664973,0.067
1679342833477361640,0.08600000000000001
1679342833485058307,0.077
1679342833492754974,0.046
1679342833500451641,0.031
1679342833508148308,0.048
1679342833515844975,0.069
1679342833523541642,0.088
1679342833531238309,0.111
1679342833538934976,0.138
1679342833546631643,0.109
1679342833554328310,0.01
1679342833562024977,0.016
1679342833569721644,0.153
1679342833577418311,0.17
1679342833585114978,0.079
1679342833592811645,0.054
1679342833600508312,0.033,,742
1679342833608204979,-0.039
1679342833615901646,-0.063
1679342833623598313,-0.035
1679342833631294980,-0.027
1679342833638991647,0.088
1679342833646688314,0.391
1679342833654384981,0.605
1679342833662081648,0.357
1679342833669778315,-0.201
1679342833677474982,-0.467
1679342833685171649,-0.326
1679342833692868316,-0.164
1679342833700564983,-0.105
1679342833708261650,-0.075
1679342833715958317,-0.073
1679342833723654984,-0.065
1679342833731351684,0.006,81
1679342833739048351,0.042
1679342833746745018,0.018000000000000002
1679342833754441685,0.002
1679342833762138352,-0.029
1679342833769835019,-0.025
1679342833777531686,0.01
1679342833785228353,0.002
1679342833792925020,-0.046
1679342833800621687,-0.069
1679342833808318354,-0.039
1679342833816015021,-0.016
1679342833823711688,-0.031
1679342833831408355,-0.021
1679342833839105022,0.027
1679342833846801689,0.054
1679342833854498356,0.061
1679342833862195023,0.082
1679342833869891690,0.10300000000000001
1679342833877588357,0.1
1679342833885285024,0.098
1679342833892981691,0.109
1679342833900678358,0.126
1679342833908375025,0.115
1679342833916071692,0.079
1679342833923768359,0.054
1679342833931465026,0.065
1679342833939161693,0.082
1679342833946858360,0.077
1679342833954555027,0.077
1679342833962251694,0.088
1679342833969948361,0.09
1679342833977645028,0.07100000000000001
1679342833985341695,0.044
1679342833993038362,0.039
1679342834000735029,0.048
1679342834008431696,0.044
1679342834016128363,0.052000000000000005
1679342834023825030,0.056
1679342834031521697,0.025
1679342834039218364,0.033
1679342834046915031,0.13
1679342834054611698,0.176
1679342834062308365,0.136
1679342834070005032,0.077
1679342834077701699,0.08600000000000001
1679342834085398366,0.159
1679342834093095033,0.178
1679342834100791700,0.191
1679342834108488367,0.231
1679342834116185034,0.233
1679342834123881701,0.23900000000000002
1679342834131578368,0.246
1679342834139275035,0.233
1679342834146971702,0.216
1679342834154668369,0.20400000000000001
1679342834162365036,0.17200000000000001
1679342834170061703,0.09
1679342834177758370,-0.004
1679342834185455037,-0.052000000000000005
1679342834193151704,0.016
1679342834200848371,0.185
1679342834208545038,0.241
1679342834216241705,0.17200000000000001
1679342834223938372,0.157
1679342834231635039,0.094
1679342834239331706,-0.105
1679342834247028373,-0.328
1679342834254725040,-0.38
1679342834262421707,-0.216
1679342834270118374,-0.1
1679342834277815041,-0.098
1679342834285511708,-0.012
1679342834293208410,0.111,81
1679342834300905286,0.134
1679342834308602162,0.107
1679342834316299038,0.111
1679342834323995914,0.092
1679342834331692790,-0.004
1679342834339389666,-0.09
1679342834347086542,-0.111
1679342834354783418,-0.149,,752
1679342834362480294,-0.20400000000000001
1679342834370177170,-0.157
1679342834377874046,0.002
1679342834385570922,0.157
1679342834393267798,0.229
1679342834400964674,0.058
1679342834408661550,-0.35100000000000003
1679342834416358426,-0.525
1679342834424055302,-0.315
1679342834431752178,-0.124
1679342834439449054,-0.09
1679342834447145930,-0.063
1679342834454842806,-0.035
1679342834462539682,-0.042
1679342834470236558,-0.084
1679342834477933434,-0.132
1679342834485630310,-0.107
1679342834493327186,-0.122
1679342834501024062,-0.22
1679342834508720938,-0.17200000000000001
1679342834516417814,-0.092
1679342834524114690,-0.107
1679342834531811566,-0.039
1679342834539508442,0.01
1679342834547205318,0.046
1679342834554902194,0.113
1679342834562599070,0.029
1679342834570295946,-0.067
1679342834577992822,0.048
1679342834585689698,0.195
1679342834593386574,0.21
1679342834601083450,0.20400000000000001
1679342834608780326,0.214
1679342834616477202,0.20800000000000002
1679342834624174078,0.218
1679342834631870954,0.23500000000000001
1679342834639567830,0.229
1679342834647264706,0.216
1679342834654961582,0.193
1679342834662658458,0.161
1679342834670355334,0.153
1679342834678052210,0.161
1679342834685749086,0.164
1679342834693445962,0.155
1679342834701142838,0.149
1679342834708839714,0.157
1679342834716536590,0.157
1679342834724233466,0.136
1679342834731930342,0.13
1679342834739627218,0.159
1679342834747324094,0.166
1679342834755020970,0.149
1679342834762717846,0.17200000000000001
1679342834770414722,0.195
1679342834778111598,0.147
1679342834785808474,0.07100000000000001
1679342834793505350,0.063
1679342834801202226,0.077
1679342834808899102,0.05
1679342834816595978,0.025
1679342834824292854,0.046
1679342834831989730,0.077
1679342834839686606,0.10300000000000001
1679342834847383482,0.128
1679342834855080394,0.147
1679342834862777270,0.13
1679342834870474146,0.084
1679342834878171022,0.084
1679342834885867898,0.151
1679342834893564774,0.187
1679342834901261650,0.134
1679342834908958526,0.058
1679342834916655402,0.044
1679342834924352278,0.054
1679342834932049154,0.023
1679342834939746030,-0.01
1679342834947442906,0.006
1679342834955139782,0.021
1679342834962836658,-0.048
1679342834970533534,-0.082
1679342834978230410,0.044
1679342834985927286,0.105
1679342834993624162,0.01
1679342835001321038,-0.077
1679342835009017914,-0.027
1679342835016714790,0.115
1679342835024411666,0.11900000000000001
1679342835032108542,0.052000000000000005
1679342835039805418,0.09
1679342835047502294,0.124
1679342835055199170,0.107
1679342835062896046,0.113
1679342835070592922,0.094
1679342835078289798,0.027
1679342835085986674,0.054
1679342835093683550,0.28300000000000003
1679342835101380426,0.614
1679342835109077302,0.7020000000000001,,755
1679342835116774178,0.244
1679342835124471054,-0.355
1679342835132167930,-0.448
1679342835139864806,-0.193
1679342835147561682,-0.07100000000000001
1679342835155258558,-0.063
1679342835162955434,-0.035
1679342835170652310,-0.044
1679342835178349186,-0.058
1679342835186046062,-0.018000000000000002
1679342835193742938,0.025
1679342835201439814,0.054
1679342835209136690,0.056
1679342835216833566,0.018000000000000002
1679342835224530442,0.008
1679342835232227318,0.029
1679342835239924194,0.035
1679342835247621070,0.052000000000000005
1679342835255317946,0.079
1679342835263014822,0.088
1679342835270711698,0.082
1679342835278408574,0.035
1679342835286105450,-0.006
1679342835293802326,0.035
1679342835301499202,0.069
1679342835309196078,0.065
1679342835316892954,0.084
1679342835324589830,0.1
1679342835332286706,0.10300000000000001
1679342835339983582,0.113
1679342835347680458,0.107
1679342835355377334,0.084
1679342835363074210,0.079
1679342835370771086,0.082
1679342835378467962,0.054
1679342835386164838,-0.088
1679342835393861714,-0.323
1679342835401558590,-0.277
1679342835409255466,0.069
1679342835416952378,0.138,81
1679342835424649254,-0.044
1679342835432346130,-0.033
1679342835440043006,0.014
1679342835447739882,-0.084
1679342835455436758,-0.115
1679342835463133634,-0.056
1679342835470830510,-0.052000000000000005
1679342835478527386,-0.067
1679342835486224262,-0.05
1679342835493921138,-0.056
1679342835501618014,-0.096
1679342835509314890,-0.084
1679342835517011766,-0.012
1679342835524708642,0.023
1679342835532405518,0.002
1679342835540102394,0.012
1679342835547799270,0.075
1679342835555496146,0.124
1679342835563193022,0.124
1679342835570889898,0.117
1679342835578586774,0.132
1679342835586283650,0.14300000000000002
1679342835593980526,0.14300000000000002
1679342835601677402,0.157
1679342835609374278,0.187
1679342835617071154,0.189
1679342835624768030,0.168
1679342835632464906,0.178
1679342835640161782,0.218
1679342835647858658,0.231
1679342835655555534,0.21
1679342835663252410,0.183
1679342835670949286,0.166
1679342835678646162,0.17
1679342835686343038,0.18
1679342835694039914,0.193
1679342835701736790,0.195
1679342835709433666,0.153
1679342835717130542,0.115
1679342835724827418,0.122
1679342835732524294,0.134
1679342835740221170,0.13
1679342835747918046,0.134
1679342835755614922,0.14300000000000002
1679342835763311798,0.134
1679342835771008674,0.113
1679342835778705550,0.075
1679342835786402426,-0.042
1679342835794099302,-0.227
1679342835801796178,-0.20400000000000001
1679342835809493054,0.088
1679342835817189930,0.34900000000000003
1679342835824886806,0.595
1679342835832583682,0.671
1679342835840280558,0.138
1679342835847977434,-0.671
1679342835855674310,-0.971
1679342835863371186,-0.704
1679342835871068062,-0.34700000000000003,,764
1679342835878764938,-0.092
1679342835886461814,0.004
1679342835894158690,-0.05
1679342835901855566,-0.084
1679342835909552442,-0.046
1679342835917249318,-0.039
1679342835924946194,-0.115
1679342835932643070,-0.28600000000000003
1679342835940339946,-0.378
1679342835948036822,-0.149
1679342835955733698,0.088
1679342835963430574,0.021
1679342835971127450,-0.094
1679342835978824364,-0.08600000000000001
1679342835986521240,-0.1
1679342835994218116,-0.149
1679342836001914992,0.008
1679342836009611868,0.23900000000000002
1679342836017308744,0.13
1679342836025005620,-0.134
1679342836032702496,0.01
1679342836040399372,0.338
1679342836048096248,0.256
1679342836055793124,0.098
1679342836063490000,0.212
1679342836071186876,0.277
1679342836078883752,0.23900000000000002
1679342836086580628,0.23700000000000002
1679342836094277504,0.193
1679342836101974380,0.149
1679342836109671256,0.201
1679342836117368132,0.216
1679342836125065008,0.178
1679342836132761884,0.17200000000000001
1679342836140458760,0.176
1679342836148155636,0.18
1679342836155852512,0.195
1679342836163549388,0.20600000000000002
1679342836171246264,0.20800000000000002
1679342836178943140,0.212
1679342836186640016,0.225
1679342836194336892,0.227
1679342836202033768,0.20800000000000002
1679342836209730644,0.20800000000000002
1679342836217427520,0.22
1679342836225124396,0.21
1679342836232821272,0.212
1679342836240518148,0.241
1679342836248215024,0.256
1679342836255911900,0.252
1679342836263608776,0.265
1679342836271305652,0.273
1679342836279002528,0.269
1679342836286699404,0.246
1679342836294396280,0.195
1679342836302093156,0.168
1679342836309790032,0.17400000000000002
1679342836317486908,0.157
1679342836325183784,0.149
1679342836332880660,0.18
1679342836340577536,0.195
1679342836348274412,0.187
1679342836355971288,0.20400000000000001
1679342836363668164,0.222
1679342836371365040,0.20800000000000002
1679342836379061916,0.201
1679342836386758792,0.229
1679342836394455668,0.244
1679342836402152544,0.231
1679342836409849420,0.201
1679342836417546296,0.17400000000000002
1679342836425243172,0.17
1679342836432940048,0.178
1679342836440636924,0.17
1679342836448333800,0.14
1679342836456030676,0.111
1679342836463727552,0.113
1679342836471424428,0.132
1679342836479121304,0.138
1679342836486818180,0.134
1679342836494515056,0.122
1679342836502211932,0.107
1679342836509908808,0.109
1679342836517605684,0.117
1679342836525302560,0.124
1679342836532999436,0.14300000000000002
1679342836540696348,0.164,80
1679342836548393224,0.145
1679342836556090100,0.107
1679342836563786976,0.164
1679342836571483852,0.401
1679342836579180728,0.715
1679342836586877604,0.778
1679342836594574480,0.338
1679342836602271356,-0.254
1679342836609968232,-0.41600000000000004
1679342836617665108,-0.244
1679342836625361984,-0.124,,754
1679342836633058860,-0.1
1679342836640755736,-0.107
1679342836648452612,-0.109
1679342836656149488,-0.08600000000000001
1679342836663846364,-0.065
1679342836671543240,-0.067
1679342836679240116,-0.067
1679342836686936992,-0.075
1679342836694633868,-0.109
1679342836702330744,-0.128
1679342836710027620,-0.107
1679342836717724496,-0.077
1679342836725421372,-0.061
1679342836733118248,-0.056
1679342836740815124,-0.039
1679342836748512000,0.004
1679342836756208876,0.037
1679342836763905752,0.05
1679342836771602628,0.073
1679342836779299504,0.1
1679342836786996380,0.122
1679342836794693256,0.111
1679342836802390132,0.056
1679342836810087008,0.033
1679342836817783884,0.05
1679342836825480760,0.027
1679342836833177636,-0.004
1679342836840874512,0.01
1679342836848571388,0.008
1679342836856268264,-0.025
1679342836863965140,-0.029
1679342836871662016,-0.021
1679342836879358892,-0.035
1679342836887055768,-0.042
1679342836894752644,-0.021
1679342836902449520,0.008
1679342836910146396,0.021
1679342836917843272,0.018000000000000002
1679342836925540148,0.031
1679342836933237024,0.042
1679342836940933900,0.014
1679342836948630776,-0.006
1679342836956327652,0.012
1679342836964024528,0.023
1679342836971721404,0.016
1679342836979418280,0.035
1679342836987115156,0.069
1679342836994812032,0.09
1679342837002508908,0.09
1679342837010205784,0.09
1679342837017902660,0.109
1679342837025599536,0.13
1679342837033296412,0.14
1679342837040993288,0.153
1679342837048690164,0.17400000000000002
1679342837056387040,0.176
1679342837064083916,0.164
1679342837071780792,0.17400000000000002
1679342837079477668,0.20600000000000002
1679342837087174544,0.225
1679342837094871420,0.225
1679342837102568332,0.216
1679342837110265069,0.225
1679342837117961806,0.248
1679342837125658543,0.254
1679342837133355280,0.256
1679342837141052017,0.273
1679342837148748754,0.246
1679342837156445491,0.176
1679342837164142228,0.155
1679342837171838965,0.17200000000000001
1679342837179535702,0.132
1679342837187232439,0.061
1679342837194929176,0.037
1679342837202625913,0.05
1679342837210322650,0.048
1679342837218019387,0.048
1679342837225716124,0.077
1679342837233412861,0.105
1679342837241109598,0.096
1679342837248806335,0.075
1679342837256503072,0.084
1679342837264199809,0.1
1679342837271896546,0.096
1679342837279593283,0.08600000000000001
1679342837287290020,0.084
1679342837294986757,0.054
1679342837302683494,-0.014
1679342837310380231,-0.048
1679342837318076968,-0.027
1679342837325773705,-0.035
1679342837333470442,-0.027
1679342837341167179,0.149
1679342837348863916,0.454
1679342837356560653,0.542
1679342837364257390,0.13,,738
1679342837371954127,-0.41000000000000003
1679342837379650864,-0.5
1679342837387347601,-0.292
1679342837395044338,-0.17400000000000002
1679342837402741075,-0.14
1679342837410437812,-0.096
1679342837418134549,-0.079
1679342837425831286,-0.1
1679342837433528023,-0.124
1679342837441224760,-0.11900000000000001
1679342837448921497,-0.107
1679342837456618234,-0.096
1679342837464314971,-0.075
1679342837472011708,-0.058
1679342837479708445,-0.056
1679342837487405182,-0.039
1679342837495101919,-0.006
1679342837502798656,0.021
1679342837510495393,0.033
1679342837518192130,0.046
1679342837525888867,0.07100000000000001
1679342837533585604,0.105
1679342837541282341,0.098
1679342837548979078,0.048
1679342837556675815,0.054
1679342837564372552,0.113
1679342837572069289,0.128
1679342837579766026,0.136
1679342837587462763,0.183
1679342837595159500,0.21
1679342837602856237,0.195
1679342837610552974,0.183
1679342837618249711,0.191
1679342837625946448,0.189
1679342837633643185,0.176
1679342837641339922,0.17400000000000002
1679342837649036659,0.17400000000000002
1679342837656733396,0.157
1679342837664430142,0.149,81
1679342837672127157,0.14300000000000002
1679342837679824172,0.113
1679342837687521187,0.092
1679342837695218202,0.096
1679342837702915217,0.094
1679342837710612232,0.094
1679342837718309247,0.082
1679342837726006262,0.039
1679342837733703277,0.025
1679342837741400292,0.05
1679342837749097307,0.048
1679342837756794322,0.029
1679342837764491337,0.048
1679342837772188352,0.079
1679342837779885367,0.088
1679342837787582382,0.092
1679342837795279397,0.098
1679342837802976412,0.077
1679342837810673427,0.014
1679342837818370442,-0.033
1679342837826067457,-0.018000000000000002
1679342837833764472,-0.002
1679342837841461487,-0.027
1679342837849158502,-0.031
1679342837856855517,0.006
1679342837864552532,0.031
1679342837872249547,0.027
1679342837879946562,0.031
1679342837887643577,0.046
1679342837895340592,0.054
1679342837903037607,0.061
1679342837910734622,0.077
1679342837918431637,0.077
1679342837926128652,0.029
1679342837933825667,-0.031
1679342837941522682,-0.039
1679342837949219697,-0.01
1679342837956916712,-0.002
1679342837964613727,-0.008
1679342837972310742,0.004
1679342837980007757,0.023
1679342837987704772,0.033
1679342837995401787,0.048
1679342838003098802,0.075
1679342838010795817,0.096
1679342838018492832,0.09
1679342838026189847,0.058
1679342838033886862,0.05
1679342838041583877,0.079
1679342838049280892,0.092
1679342838056977907,0.084
1679342838064674922,0.096
1679342838072371937,0.115
1679342838080068952,0.1,,714
1679342838087765967,0.07100000000000001
1679342838095462982,0.098
1679342838103159997,0.275
1679342838110857012,0.559
1679342838118554027,0.641
1679342838126251042,0.265
1679342838133948057,-0.241
1679342838141645072,-0.368
1679342838149342087,-0.18
1679342838157039102,-0.037
1679342838164736117,-0.018000000000000002
1679342838172433132,-0.039
1679342838180130147,-0.039
1679342838187827162,-0.016
1679342838195524177,-0.002
1679342838203221192,-0.008
1679342838210918207,-0.01
1679342838218615222,0.002
1679342838226312300,0.025
1679342838234008758,0.044
1679342838241705216,0.058
1679342838249401674,0.073
1679342838257098132,0.058
1679342838264794590,0.01
1679342838272491048,-0.002
1679342838280187506,0.035
1679342838287883964,0.056
1679342838295580422,0.052000000000000005
1679342838303276880,0.037
1679342838310973338,-0.002
1679342838318669796,-0.037
1679342838326366254,-0.025
1679342838334062712,0.006
1679342838341759170,0.014
1679342838349455628,0.002
1679342838357152086,-0.006
1679342838364848544,0.008
1679342838372545002,0.018000000000000002
1679342838380241460,0.008
1679342838387937918,-0.018000000000000002
1679342838395634376,-0.039
1679342838403330834,-0.042
1679342838411027292,-0.039
1679342838418723750,-0.063
1679342838426420208,-0.069
1679342838434116666,-0.046
1679342838441813124,-0.048
1679342838449509582,-0.058
1679342838457206040,-0.023
1679342838464902498,0.016
1679342838472598956,0.021
1679342838480295414,0.025
1679342838487991872,0.042
1679342838495688330,0.054
1679342838503384788,0.063
1679342838511081246,0.08600000000000001
1679342838518777704,0.117
1679342838526474162,0.13
1679342838534170620,0.122
1679342838541867078,0.124
1679342838549563536,0.149
1679342838557259994,0.17
1679342838564956452,0.18
1679342838572652910,0.193
1679342838580349368,0.199
1679342838588045826,0.195
1679342838595742284,0.201
1679342838603438742,0.22
1679342838611135200,0.23700000000000002
1679342838618831658,0.244
1679342838626528116,0.23900000000000002
1679342838634224574,0.23500000000000001
1679342838641921032,0.258
1679342838649617490,0.28800000000000003
1679342838657313948,0.28600000000000003
1679342838665010406,0.233
1679342838672706864,0.18
1679342838680403322,0.159
1679342838688099780,0.153
1679342838695796238,0.153
1679342838703492696,0.166
1679342838711189154,0.168
1679342838718885612,0.145
1679342838726582070,0.13
1679342838734278528,0.151
1679342838741974986,0.185
1679342838749671444,0.189
1679342838757367902,0.185
1679342838765064360,0.111
1679342838772760818,-0.025
1679342838780457276,-0.033
1679342838788153766,0.069,81
1679342838795850642,0.147
1679342838803547518,0.107,,725
1679342838811244394,-0.069
1679342838818941270,-0.13
1679342838826638146,-0.031
1679342838834335022,-0.13
1679342838842031898,-0.233
1679342838849728774,-0.134
1679342838857425650,-0.124
1679342838865122526,0.025
1679342838872819402,0.445
1679342838880516278,0.542
1679342838888213154,0.046
1679342838895910030,-0.519
1679342838903606906,-0.736
1679342838911303782,-0.782
1679342838919000658,-0.746
1679342838926697534,-0.603
1679342838934394410,-0.519
1679342838942091286,-0.41600000000000004
1679342838949788162,-0.222
1679342838957485038,-0.281
1679342838965181914,-0.5
1679342838972878790,-0.439
1679342838980575666,-0.241
1679342838988272542,-0.17400000000000002
1679342838995969418,-0.26
1679342839003666294,-0.328
1679342839011363170,-0.225
1679342839019060046,-0.132
1679342839026756922,-0.157
1679342839034453798,-0.168
1679342839042150674,-0.147
1679342839049847550,-0.189
1679342839057544426,-0.227
1679342839065241302,-0.149
1679342839072938178,-0.048
1679342839080635054,0.018000000000000002
1679342839088331930,0.067
1679342839096028806,0.052000000000000005
1679342839103725682,-0.063
1679342839111422558,-0.153
1679342839119119434,-0.10300000000000001
1679342839126816310,-0.058
1679342839134513186,-0.115
1679342839142210062,-0.136
1679342839149906938,-0.11900000000000001
1679342839157603814,-0.134
1679342839165300690,-0.10300000000000001
1679342839172997566,-0.073
1679342839180694442,-0.161
1679342839188391318,-0.222
1679342839196088194,-0.176
1679342839203785070,-0.14
1679342839211481946,-0.122
1679342839219178822,-0.10300000000000001
1679342839226875698,-0.098
1679342839234572574,-0.035
1679342839242269450,0.147
1679342839249966326,0.26
1679342839257663202,0.159
1679342839265360078,0.105
1679342839273056954,0.176
1679342839280753830,0.088
1679342839288450706,-0.063
1679342839296147582,-0.008
1679342839303844458,0.077
1679342839311541334,0.05
1679342839319238210,0.008
1679342839326935086,-0.023
1679342839334631962,-0.044
1679342839342328838,-0.031
1679342839350025752,-0.004,81
1679342839357722628,-0.004
1679342839365419504,-0.016
1679342839373116380,0.006
1679342839380813256,0.044
1679342839388510132,0.021
1679342839396207008,0.029
1679342839403903884,0.14300000000000002
1679342839411600760,0.111
1679342839419297636,-0.046
1679342839426994512,-0.016
1679342839434691388,0.023
1679342839442388264,-0.157
1679342839450085140,-0.258
1679342839457782016,-0.153
1679342839465478892,-0.056
1679342839473175768,-0.027
1679342839480872644,-0.05
1679342839488569520,-0.096
1679342839496266396,-0.1
1679342839503963272,-0.115
1679342839511660148,-0.126
1679342839519357024,-0.096
1679342839527053900,-0.075
1679342839534750776,-0.07100000000000001
1679342839542447652,-0.07100000000000001
1679342839550144528,-0.107
1679342839557841404,-0.151,,754
1679342839565538280,-0.077
1679342839573235156,0.20400000000000001
1679342839580932032,0.5630000000000001
1679342839588628908,0.5720000000000001
1679342839596325784,-0.016
1679342839604022660,-0.62
1679342839611719536,-0.62
1679342839619416412,-0.334
1679342839627113288,-0.201
1679342839634810164,-0.153
1679342839642507040,-0.11900000000000001
1679342839650203916,-0.151
1679342839657900792,-0.178
1679342839665597668,-0.14300000000000002
1679342839673294544,-0.109
1679342839680991420,-0.098
1679342839688688296,-0.073
1679342839696385172,-0.052000000000000005
1679342839704082048,-0.054
1679342839711778924,-0.039
1679342839719475800,0.006
1679342839727172676,0.033
1679342839734869552,0.031
1679342839742566428,0.046
1679342839750263304,0.082
1679342839757960180,0.11900000000000001
1679342839765657056,0.149
1679342839773353932,0.164
1679342839781050808,0.17200000000000001
1679342839788747684,0.191
1679342839796444560,0.214
1679342839804141436,0.23500000000000001
1679342839811838312,0.227
1679342839819535188,0.166
1679342839827232064,0.073
1679342839834928940,0.037
1679342839842625816,0.05
1679342839850322692,0.027
1679342839858019568,-0.014
1679342839865716444,-0.029
1679342839873413320,-0.039
1679342839881110196,-0.058
1679342839888807072,-0.075
1679342839896503948,-0.1
1679342839904200824,-0.1
1679342839911897736,-0.094
1679342839919594612,-0.1
1679342839927291488,-0.075
1679342839934988364,-0.05
1679342839942685240,-0.056
1679342839950382116,-0.037
1679342839958078992,0.0
1679342839965775868,-0.01
1679342839973472744,-0.063
1679342839981169620,-0.063
1679342839988866496,-0.039
1679342839996563372,-0.073
1679342840004260248,-0.126
1679342840011957124,-0.153
1679342840019654000,-0.14
1679342840027350876,-0.111
1679342840035047752,-0.109
1679342840042744628,-0.107
1679342840050441504,-0.08600000000000001
1679342840058138380,-0.08600000000000001
1679342840065835256,-0.082
1679342840073532132,-0.048
1679342840081229008,-0.018000000000000002
1679342840088925884,0.002
1679342840096622760,0.01
1679342840104319636,-0.01
1679342840112016512,-0.029
1679342840119713388,-0.029
1679342840127410264,-0.027
1679342840135107140,-0.027
1679342840142804016,-0.042
1679342840150500892,-0.077
1679342840158197768,-0.096
1679342840165894644,-0.088
1679342840173591520,-0.065
1679342840181288396,-0.054
1679342840188985272,-0.052000000000000005
1679342840196682148,-0.042
1679342840204379024,-0.039
1679342840212075900,-0.035
1679342840219772776,-0.012
1679342840227469652,-0.025
1679342840235166528,-0.012
1679342840242863404,0.225
1679342840250560280,0.65
1679342840258257156,0.917
1679342840265954032,0.595
1679342840273650908,-0.21
1679342840281347784,-0.599
1679342840289044660,-0.319
1679342840296741536,-0.098
1679342840304438412,-0.109
1679342840312135288,-0.07100000000000001
1679342840319832164,-0.063
1679342840327529040,-0.155,,770
1679342840335225916,-0.199
1679342840342922792,-0.18
1679342840350619668,-0.178
1679342840358316544,-0.151
1679342840366013420,-0.109
1679342840373710296,-0.117
1679342840381407172,-0.145
1679342840389104048,-0.153
1679342840396800924,-0.153
1679342840404497800,-0.124
1679342840412194676,-0.079
1679342840419891552,-0.075
1679342840427588428,-0.079
1679342840435285304,-0.031
1679342840442982180,0.025
1679342840450679056,0.035
1679342840458375932,0.056
1679342840466072808,0.117
1679342840473769720,0.124,81
1679342840481466178,0.073
1679342840489162636,0.07100000000000001
1679342840496859094,0.107
1679342840504555552,0.105
1679342840512252010,0.07100000000000001
1679342840519948468,0.039
1679342840527644926,0.023
1679342840535341384,0.006
1679342840543037842,-0.044
1679342840550734300,-0.082
1679342840558430758,-0.073
1679342840566127216,-0.067
1679342840573823674,-0.075
1679342840581520132,-0.065
1679342840589216590,-0.033
1679342840596913048,-0.002
1679342840604609506,0.0
1679342840612305964,0.004
1679342840620002422,0.033
1679342840627698880,0.056
1679342840635395338,0.048
1679342840643091796,0.046
1679342840650788254,0.082
1679342840658484712,0.107
1679342840666181170,0.122
1679342840673877628,0.18
1679342840681574086,0.231
1679342840689270544,0.225
1679342840696967002,0.216
1679342840704663460,0.216
1679342840712359918,0.168
1679342840720056376,0.126
1679342840727752834,0.168
1679342840735449292,0.22
1679342840743145750,0.353
1679342840750842208,0.746
1679342840758538666,1.064
1679342840766235124,0.9570000000000001
1679342840773931582,0.847
1679342840781628040,0.873
1679342840789324498,0.673
1679342840797020956,0.485
1679342840804717414,0.647
1679342840812413872,0.753
1679342840820110330,0.616
1679342840827806788,0.46
1679342840835503246,0.281
1679342840843199704,0.277
1679342840850896162,0.321
1679342840858592620,0.054
1679342840866289078,-0.016
1679342840873985536,0.361
1679342840881681994,0.542
1679342840889378452,0.252
1679342840897074910,-0.191
1679342840904771368,-0.42
1679342840912467826,-0.248
1679342840920164284,0.359
1679342840927860742,1.222
1679342840935557200,1.497
1679342840943253658,0.776
1679342840950950116,-0.016
1679342840958646574,-0.397
1679342840966343032,-0.5720000000000001
1679342840974039490,-0.41000000000000003
1679342840981735948,-0.145
1679342840989432406,-0.065
1679342840997128864,0.183
1679342841004825322,0.452
1679342841012521780,0.33
1679342841020218238,0.262
1679342841027914696,0.406
1679342841035611186,0.481
1679342841043308062,0.513
1679342841051004938,0.23700000000000002
1679342841058701814,-0.115
1679342841066398690,-0.018000000000000002
1679342841074095566,0.006
1679342841081792442,-0.28600000000000003
1679342841089489318,-0.382,,763
1679342841097186194,-0.267
1679342841104883070,-0.212
1679342841112579946,-0.216
1679342841120276822,-0.218
1679342841127973698,-0.225
1679342841135670574,-0.20800000000000002
1679342841143367450,-0.153
1679342841151064326,-0.115
1679342841158761202,-0.14300000000000002
1679342841166458078,-0.20600000000000002
1679342841174154954,-0.229
1679342841181851830,-0.214
1679342841189548706,-0.189
1679342841197245582,-0.166
1679342841204942458,-0.155
1679342841212639334,-0.07100000000000001
1679342841220336210,0.313
1679342841228033086,0.5720000000000001
1679342841235729962,0.393
1679342841243426838,0.47500000000000003
1679342841251123714,0.637
1679342841258820590,0.275
1679342841266517466,0.147
1679342841274214342,0.591
1679342841281911218,0.664
1679342841289608094,0.395
1679342841297304970,0.38
1679342841305001846,0.467
1679342841312698722,0.355
1679342841320395598,-0.098
1679342841328092474,-0.216
1679342841335789350,0.185
1679342841343486226,0.233
1679342841351183102,0.277
1679342841358879978,0.599
1679342841366576854,0.47900000000000004
1679342841374273730,0.136
1679342841381970606,0.185
1679342841389667482,0.197
1679342841397364358,-0.061
1679342841405061234,0.111
1679342841412758110,0.452
1679342841420454986,0.342
1679342841428151862,0.28300000000000003
1679342841435848738,0.41200000000000003
1679342841443545614,0.357
1679342841451242490,0.212
1679342841458939366,0.252
1679342841466636242,0.319
1679342841474333118,-0.063
1679342841482029994,-0.485
1679342841489726870,-0.08600000000000001
1679342841497423746,0.5760000000000001
1679342841505120622,0.309
1679342841512817498,-0.366
1679342841520514374,-0.326
1679342841528211250,0.067
1679342841535908126,0.29
1679342841543605002,0.467
1679342841551301878,0.626
1679342841558998754,0.639
1679342841566695630,0.555
1679342841574392506,0.532
1679342841582089382,0.452
1679342841589786258,0.496
1679342841597483170,0.6940000000000001,80
1679342841605180464,0.61
1679342841612877758,0.363
1679342841620575052,-0.012
1679342841628272346,-0.317
1679342841635969640,0.088
1679342841643666934,0.513
1679342841651364228,0.23900000000000002
1679342841659061522,0.027
1679342841666758816,0.218
1679342841674456110,0.441
1679342841682153404,0.5630000000000001
1679342841689850698,0.616
1679342841697547992,0.443
1679342841705245286,-0.105
1679342841712942580,-0.431
1679342841720639874,-0.132
1679342841728337168,0.227
1679342841736034462,0.225
1679342841743731756,0.164
1679342841751429050,0.185
1679342841759126344,0.008
1679342841766823638,-0.195
1679342841774520932,-0.269
1679342841782218226,-0.41400000000000003
1679342841789915520,-0.406
1679342841797612814,-0.258
1679342841805310108,-0.336
1679342841813007402,-0.445
1679342841820704696,-0.361
1679342841828401990,-0.246
1679342841836099284,-0.178
1679342841843796578,-0.09
1679342841851493872,-0.014,,763
1679342841859191166,0.021
1679342841866888460,0.10300000000000001
1679342841874585754,0.14
1679342841882283048,0.008
1679342841889980342,0.042
1679342841897677636,0.109
1679342841905374930,-0.23700000000000002
1679342841913072224,-0.578
1679342841920769518,-0.549
1679342841928466812,-0.46900000000000003
1679342841936164106,-0.313
1679342841943861400,0.14
1679342841951558694,0.363
1679342841959255988,0.046
1679342841966953282,-0.275
1679342841974650576,-0.20400000000000001
1679342841982347870,0.153
1679342841990045164,0.292
1679342841997742458,0.147
1679342842005439752,0.138
1679342842013137046,0.10300000000000001
1679342842020834340,-0.277
1679342842028531634,-0.47100000000000003
1679342842036228928,-0.107
1679342842043926222,0.214
1679342842051623516,0.025
1679342842059320810,-0.315
1679342842067018104,-0.23900000000000002
1679342842074715398,0.11900000000000001
1679342842082412692,0.363
1679342842090109986,0.41600000000000004
1679342842097807280,0.366
1679342842105504574,0.357
1679342842113201868,0.359
1679342842120899162,0.328
1679342842128596456,0.321
1679342842136293750,0.302
1679342842143991044,0.281
1679342842151688338,0.317
1679342842159385670,0.23700000000000002
1679342842167082546,-0.115
1679342842174779422,-0.391
1679342842182476298,-0.269
1679342842190173174,0.05
1679342842197870050,0.29
1679342842205566926,0.058
1679342842213263802,-0.452
1679342842220960678,-0.46
1679342842228657554,-0.088
1679342842236354430,0.185
1679342842244051306,0.35100000000000003
1679342842251748182,0.437
1679342842259445058,0.45
1679342842267141934,0.437
1679342842274838810,0.431
1679342842282535686,0.41400000000000003
1679342842290232562,0.387
1679342842297929438,0.34700000000000003
1679342842305626314,0.332
1679342842313323190,0.403
1679342842321020066,0.47100000000000003
1679342842328716942,0.448
1679342842336413818,0.445
1679342842344110694,0.452
1679342842351807570,0.34900000000000003
1679342842359504446,0.23700000000000002
1679342842367201322,0.20600000000000002
1679342842374898198,0.183
1679342842382595074,0.159
1679342842390291950,0.151
1679342842397988826,0.111
1679342842405685702,0.035
1679342842413382578,-0.023
1679342842421079454,-0.079
1679342842428776330,-0.094
1679342842436473206,0.08600000000000001
1679342842444170082,0.40800000000000003
1679342842451866958,0.633
1679342842459563834,0.464
1679342842467260710,-0.122
1679342842474957586,-0.515
1679342842482654462,-0.342
1679342842490351338,-0.025
1679342842498048214,0.145
1679342842505745090,0.23500000000000001
1679342842513441966,0.241
1679342842521138842,0.225
1679342842528835718,0.248
1679342842536532594,0.267
1679342842544229470,0.271
1679342842551926346,0.254
1679342842559623222,0.212,,706
1679342842567320098,0.185
1679342842575016974,0.17400000000000002
1679342842582713850,0.14
1679342842590410726,0.113
1679342842598107602,0.1
1679342842605804478,0.058
1679342842613501354,0.035
1679342842621198230,0.063
1679342842628895106,0.094
1679342842636591982,0.098
1679342842644288858,0.09
1679342842651985734,0.107
1679342842659682610,0.016
1679342842667379486,-0.302
1679342842675076362,-0.549
1679342842682773238,-0.483
1679342842690470114,-0.193
1679342842698166990,0.21
1679342842705863866,0.334
1679342842713560742,0.166
1679342842721257658,0.168,81
1679342842728954534,0.23500000000000001
1679342842736651410,0.147
1679342842744348286,0.105
1679342842752045162,0.151
1679342842759742038,0.151
1679342842767438914,0.132
1679342842775135790,0.164
1679342842782832666,0.159
1679342842790529542,0.039
1679342842798226418,-0.006
1679342842805923294,0.115
1679342842813620170,0.14300000000000002
1679342842821317046,0.033
1679342842829013922,-0.021
1679342842836710798,-0.042
1679342842844407674,-0.225
1679342842852104550,-0.38
1679342842859801426,-0.441
1679342842867498302,-0.778
1679342842875195178,-0.982
1679342842882892054,-0.774
1679342842890588930,-0.654
1679342842898285806,-0.643
1679342842905982682,-0.595
1679342842913679558,-0.58
1679342842921376434,-0.534
1679342842929073310,-0.47100000000000003
1679342842936770186,-0.445
1679342842944467062,-0.433
1679342842952163938,-0.41400000000000003
1679342842959860814,-0.387
1679342842967557690,-0.368
1679342842975254566,-0.34900000000000003
1679342842982951442,-0.307
1679342842990648318,-0.262
1679342842998345194,-0.233
1679342843006042070,-0.218
1679342843013738946,-0.195
1679342843021435822,-0.161
1679342843029132698,-0.134
1679342843036829574,-0.115
1679342843044526450,-0.084
1679342843052223326,-0.048
1679342843059920202,-0.042
1679342843067617078,-0.046
1679342843075313954,-0.016
1679342843083010830,0.023
1679342843090707706,0.033
1679342843098404582,0.023
1679342843106101458,0.029
1679342843113798334,0.056
1679342843121495210,0.073
1679342843129192086,0.075
1679342843136888962,0.084
1679342843144585838,0.09
1679342843152282714,0.063
1679342843159979590,0.031
1679342843167676466,0.042
1679342843175373342,0.067
1679342843183070218,0.073
1679342843190767094,0.077
1679342843198463970,0.067
1679342843206160846,0.052000000000000005
1679342843213857722,0.157
1679342843221554598,0.46
1679342843229251474,0.778
1679342843236948350,0.6980000000000001,,674
1679342843244645226,0.126
1679342843252342102,-0.311
1679342843260038978,-0.199
1679342843267735854,0.05
1679342843275432730,0.117
1679342843283129642,0.13,82
1679342843290826936,0.159
1679342843298524230,0.166
1679342843306221524,0.164
1679342843313918818,0.17200000000000001
1679342843321616112,0.168
1679342843329313406,0.149
1679342843337010700,0.109
1679342843344707994,0.046
1679342843352405288,-0.025
1679342843360102582,-0.117
1679342843367799876,-0.191
1679342843375497170,-0.185
1679342843383194464,-0.164
1679342843390891758,-0.17400000000000002
1679342843398589052,-0.159
1679342843406286346,-0.113
1679342843413983640,-0.075
1679342843421680934,-0.073
1679342843429378228,-0.077
1679342843437075522,-0.027
1679342843444772816,-0.018000000000000002
1679342843452470110,-0.113
1679342843460167404,-0.11900000000000001
1679342843467864698,-0.031
1679342843475561992,-0.035
1679342843483259286,-0.092
1679342843490956580,-0.033
1679342843498653874,0.088
1679342843506351168,0.098
1679342843514048462,-0.021
1679342843521745756,-0.151
1679342843529443050,-0.187
1679342843537140344,-0.138
1679342843544837638,-0.117
1679342843552534932,-0.113
1679342843560232226,-0.075
1679342843567929520,-0.061
1679342843575626814,-0.069
1679342843583324108,-0.067
1679342843591021402,-0.07100000000000001
1679342843598718696,-0.079
1679342843606415990,-0.07100000000000001
1679342843614113284,-0.058
1679342843621810578,-0.042
1679342843629507872,-0.018000000000000002
1679342843637205166,-0.004
1679342843644902460,0.018000000000000002
1679342843652599754,0.052000000000000005
1679342843660297048,0.065
1679342843667994342,0.07100000000000001
1679342843675691636,0.088
1679342843683388930,0.10300000000000001
1679342843691086224,0.107
1679342843698783518,0.111
1679342843706480812,0.117
1679342843714178106,0.128
1679342843721875400,0.14
1679342843729572694,0.149
1679342843737269988,0.17
1679342843744967282,0.189
1679342843752664576,0.183
1679342843760361870,0.178
1679342843768059164,0.20400000000000001
1679342843775756458,0.231
1679342843783453752,0.233
1679342843791151046,0.233
1679342843798848340,0.241
1679342843806545634,0.246
1679342843814242928,0.244
1679342843821940222,0.246
1679342843829637516,0.241
1679342843837334810,0.20400000000000001
1679342843845032144,0.159
1679342843852729020,0.14
1679342843860425896,0.092
1679342843868122772,0.006
1679342843875819648,-0.025
1679342843883516524,-0.004
1679342843891213400,-0.008
1679342843898910276,-0.042
1679342843906607152,-0.092
1679342843914304028,-0.117
1679342843922000904,-0.109
1679342843929697780,-0.113
1679342843937394656,-0.136
1679342843945091532,-0.09
1679342843952788408,0.20600000000000002
1679342843960485284,0.5650000000000001
1679342843968182160,0.559
1679342843975879036,0.406
1679342843983575912,0.422
1679342843991272788,0.494
1679342843998969664,0.677
1679342844006666540,1.0070000000000001
1679342844014363416,1.051
1679342844022060292,0.534
1679342844029757168,-0.029
1679342844037454044,-0.056
1679342844045150920,0.161
1679342844052847796,0.21
1679342844060544672,0.193
1679342844068241548,0.216
1679342844075938424,0.134
1679342844083635300,-0.189
1679342844091332176,-0.401
1679342844099029052,-0.016
1679342844106725928,0.353
1679342844114422804,0.183
1679342844122119680,0.077
1679342844129816556,0.20600000000000002
1679342844137513432,0.20600000000000002
1679342844145210308,0.151
1679342844152907184,0.189
1679342844160604060,0.218
1679342844168300936,0.20800000000000002
1679342844175997812,0.212
1679342844183694688,0.23700000000000002
1679342844191391564,0.265
1679342844199088440,0.281
1679342844206785316,0.292
1679342844214482192,0.3
1679342844222179068,0.305
1679342844229875944,0.309
1679342844237572820,0.309
1679342844245269696,0.315
1679342844252966572,0.321
1679342844260663448,0.3
1679342844268360324,0.262
1679342844276057200,0.252
1679342844283754076,0.252
1679342844291450952,0.233
1679342844299147828,0.21
1679342844306844704,0.199
1679342844314541580,0.199
1679342844322238456,0.187
1679342844329935332,0.161
1679342844337632208,0.161
1679342844345329084,0.183
1679342844353025960,0.176
1679342844360722836,0.134
1679342844368419712,0.082
1679342844376116588,0.044
1679342844383813464,0.037
1679342844391510340,0.048
1679342844399207216,0.054
1679342844406904128,0.061,83
1679342844414601352,0.067
1679342844422298576,0.079
1679342844429995800,0.105
1679342844437693024,0.113
1679342844445390248,0.096
1679342844453087472,0.096
1679342844460784696,0.122
1679342844468481920,0.117,,1238
1679342844476179144,0.069
1679342844483876368,0.048
1679342844491573592,0.063
1679342844499270816,0.046
1679342844506968040,-0.033
1679342844514665264,-0.027
1679342844522362488,0.117
1679342844530059712,0.136
1679342844537756936,0.037
1679342844545454160,0.039
1679342844553151384,0.079
1679342844560848608,0.058
1679342844568545832,0.023
1679342844576243056,-0.004
1679342844583940280,-0.025
1679342844591637504,-0.033
1679342844599334728,-0.027
1679342844607031952,-0.004
1679342844614729176,0.025
1679342844622426400,0.033
1679342844630123624,0.035
1679342844637820848,0.056
1679342844645518072,0.067
1679342844653215296,-0.084
1679342844660912520,-0.41200000000000003
1679342844668609744,-0.47500000000000003
1679342844676306968,-0.18
1679342844684004192,-0.105
1679342844691701416,-0.309
1679342844699398640,-0.309
1679342844707095864,-0.08600000000000001
1679342844714793088,0.063
1679342844722490312,0.092
1679342844730187536,0.11900000000000001
1679342844737884760,0.311
1679342844745581984,0.637
1679342844753279208,0.715
1679342844760976432,0.277
1679342844768673656,-0.29
1679342844776370880,-0.448
1679342844784068104,-0.252
1679342844791765328,-0.014
1679342844799462552,0.10300000000000001
1679342844807159776,0.084
1679342844814857000,0.046
1679342844822554224,0.027
1679342844830251448,0.004
1679342844837948672,-0.008
1679342844845645896,0.014
1679342844853343120,0.05
1679342844861040344,0.05
1679342844868737568,0.006
1679342844876434792,-0.042
1679342844884132016,-0.058
1679342844891829240,-0.048
1679342844899526464,-0.037
1679342844907223688,-0.025
1679342844914920912,0.006
1679342844922618136,0.027
1679342844930315360,0.048
1679342844938012584,0.09
1679342844945709808,0.122
1679342844953407032,0.126
1679342844961104256,0.136
1679342844968801542,0.168
1679342844976498070,0.189
1679342844984194598,0.187
1679342844991891126,0.183
1679342844999587654,0.17200000000000001
1679342845007284182,0.132
1679342845014980710,0.063
1679342845022677238,0.016
1679342845030373766,0.021
1679342845038070294,0.016
1679342845045766822,-0.018000000000000002
1679342845053463350,-0.029
1679342845061159878,-0.023
1679342845068856406,-0.054
1679342845076552934,-0.07100000000000001
1679342845084249462,-0.048
1679342845091945990,-0.033
1679342845099642518,-0.033
1679342845107339046,-0.014
1679342845115035574,0.016
1679342845122732102,0.044
1679342845130428630,0.052000000000000005
1679342845138125158,0.048
1679342845145821686,0.065
1679342845153518214,0.096
1679342845161214742,0.113
1679342845168911270,0.11900000000000001,,699
1679342845176607798,0.138
1679342845184304326,0.149
1679342845192000854,0.14300000000000002
1679342845199697382,0.149
1679342845207393910,0.178
1679342845215090438,0.199
1679342845222786966,0.199
1679342845230483494,0.193
1679342845238180022,0.20400000000000001
1679342845245876550,0.227
1679342845253573078,0.233
1679342845261269606,0.23900000000000002
1679342845268966134,0.26
1679342845276662662,0.269
1679342845284359190,0.258
1679342845292055718,0.265
1679342845299752246,0.292
1679342845307448774,0.298
1679342845315145302,0.275
1679342845322841830,0.269
1679342845330538358,0.296
1679342845338234886,0.313
1679342845345931414,0.298
1679342845353627942,0.292
1679342845361324470,0.3
1679342845369020998,0.281
1679342845376717526,0.20800000000000002
1679342845384414054,0.151
1679342845392110582,0.161
1679342845399807110,0.161
1679342845407503638,0.138
1679342845415200166,0.124
1679342845422896694,0.11900000000000001,,256
1679342845430593222,0.21
1679342845438289750,0.49
1679342845445986278,0.8220000000000001
1679342845453682806,0.805
1679342845461379334,0.275
1679342845469075862,-0.212
1679342845476772390,-0.159
1679342845484468918,0.1
1679342845492165446,0.193
1679342845499861974,0.214
1679342845507558502,0.244
1679342845515255030,0.252
1679342845522951558,0.252
1679342845530648096,0.267,84
1679342845538344972,0.28800000000000003
1679342845546041848,0.302
1679342845553738724,0.28800000000000003
1679342845561435600,0.254
1679342845569132476,0.254
1679342845576829352,0.26
1679342845584526228,0.218
1679342845592223104,0.178
1679342845599919980,0.193
1679342845607616856,0.20800000000000002
1679342845615313732,0.20600000000000002
1679342845623010608,0.227
1679342845630707484,0.267
1679342845638404360,0.28600000000000003
1679342845646101236,0.28300000000000003
1679342845653798112,0.292
1679342845661494988,0.317
1679342845669191864,0.326
1679342845676888740,0.319
1679342845684585616,0.319
1679342845692282492,0.309
1679342845699979368,0.281
1679342845707676244,0.256
1679342845715373120,0.241
1679342845723069996,0.231
1679342845730766872,0.214
1679342845738463748,0.187
1679342845746160624,0.176
1679342845753857500,0.191
1679342845761554376,0.195
1679342845769251252,0.176
1679342845776948128,0.149
1679342845784645004,0.124
1679342845792341880,0.10300000000000001
1679342845800038756,0.075
1679342845807735632,0.046
1679342845815432508,0.033
1679342845823129384,0.023
1679342845830826260,-0.002
1679342845838523136,0.002
1679342845846220012,0.021
1679342845853916888,0.018000000000000002
1679342845861613764,0.016
1679342845869310640,0.035
1679342845877007516,0.021
1679342845884704392,-0.046
1679342845892401268,-0.09
1679342845900098144,-0.069
1679342845907795020,-0.052000000000000005
1679342845915491896,-0.069
1679342845923188772,-0.073
1679342845930885648,-0.065
1679342845938582524,-0.084
1679342845946279400,-0.115
1679342845953976276,-0.126
1679342845961673152,-0.151
1679342845969370028,-0.195
1679342845977066904,-0.216
1679342845984763780,-0.212
1679342845992460656,-0.187
1679342846000157532,-0.147
1679342846007854408,-0.14
1679342846015551284,-0.14300000000000002
1679342846023248160,-0.117
1679342846030945036,-0.10300000000000001
1679342846038641912,-0.115
1679342846046338788,-0.138
1679342846054035664,-0.178
1679342846061732540,-0.214
1679342846069429416,-0.214
1679342846077126292,-0.189
1679342846084823168,-0.168
1679342846092520082,-0.159
1679342846100217097,-0.157
1679342846107914112,-0.168
1679342846115611127,-0.159
1679342846123308142,-0.01
1679342846131005157,0.319
1679342846138702172,0.614
1679342846146399187,0.441
1679342846154096202,-0.193
1679342846161793217,-0.584
1679342846169490232,-0.40800000000000003
1679342846177187247,-0.17400000000000002
1679342846184884262,-0.138
1679342846192581277,-0.111
1679342846200278292,-0.067
1679342846207975307,-0.065,,779
1679342846215672322,-0.061
1679342846223369337,-0.023
1679342846231066352,0.012
1679342846238763367,0.025
1679342846246460382,0.025
1679342846254157397,0.046
1679342846261854412,0.079
1679342846269551427,0.10300000000000001
1679342846277248442,0.117
1679342846284945457,0.136
1679342846292642472,0.134
1679342846300339487,0.1
1679342846308036502,0.098
1679342846315733517,0.14300000000000002
1679342846323430532,0.178
1679342846331127547,0.193
1679342846338824562,0.201
1679342846346521577,0.227
1679342846354218592,0.256
1679342846361915607,0.265
1679342846369612622,0.265
1679342846377309637,0.271
1679342846385006652,0.252
1679342846392703667,0.176
1679342846400400682,0.098
1679342846408097697,0.077
1679342846415794712,0.079
1679342846423491727,0.05
1679342846431188742,0.018000000000000002
1679342846438885757,0.025
1679342846446582772,0.039
1679342846454279787,0.042
1679342846461976802,0.05
1679342846469673817,0.058
1679342846477370832,0.029
1679342846485067847,0.002
1679342846492764862,0.016
1679342846500461877,0.044
1679342846508158892,0.05
1679342846515855907,0.042
1679342846523552922,0.044
1679342846531249937,0.056
1679342846538946952,0.05
1679342846546643967,0.025
1679342846554340982,0.029
1679342846562037997,0.048
1679342846569735012,0.035
1679342846577432027,0.021
1679342846585129042,0.042
1679342846592826057,0.067
1679342846600523072,0.075
1679342846608220087,0.073
1679342846615917102,0.075
1679342846623614117,0.088
1679342846631311132,0.08600000000000001
1679342846639008147,0.056
1679342846646705162,0.035
1679342846654402238,0.025,83
1679342846662099602,-0.023
1679342846669796966,-0.065
1679342846677494330,-0.046
1679342846685191694,-0.029
1679342846692889058,-0.039
1679342846700586422,-0.039
1679342846708283786,-0.027
1679342846715981150,-0.035
1679342846723678514,-0.098
1679342846731375878,-0.176
1679342846739073242,-0.195
1679342846746770606,-0.193
1679342846754467970,-0.225
1679342846762165334,-0.233
1679342846769862698,-0.201
1679342846777560062,-0.185
1679342846785257426,-0.195
1679342846792954790,-0.227
1679342846800652154,-0.265
1679342846808349518,-0.25
1679342846816046882,-0.079
1679342846823744246,0.254
1679342846831441610,0.492
1679342846839138974,0.244
1679342846846836338,-0.35100000000000003
1679342846854533702,-0.612
1679342846862231066,-0.395
1679342846869928430,-0.197
1679342846877625794,-0.161
1679342846885323158,-0.134
1679342846893020522,-0.147
1679342846900717886,-0.23900000000000002
1679342846908415250,-0.296
1679342846916112614,-0.294
1679342846923809978,-0.294
1679342846931507342,-0.305
1679342846939204706,-0.302
1679342846946902070,-0.28600000000000003
1679342846954599434,-0.254
1679342846962296798,-0.23500000000000001
1679342846969994162,-0.22
1679342846977691526,-0.193
1679342846985388890,-0.17200000000000001,,779
1679342846993086254,-0.157
1679342847000783618,-0.126
1679342847008480982,-0.075
1679342847016178346,-0.039
1679342847023875710,-0.027
1679342847031573074,-0.044
1679342847039270438,-0.063
1679342847046967802,-0.056
1679342847054665166,-0.037
1679342847062362530,-0.025
1679342847070059894,-0.012
1679342847077757258,-0.021
1679342847085454622,-0.063
1679342847093151986,-0.23700000000000002
1679342847100849350,-0.521
1679342847108546714,-0.595
1679342847116244078,-0.47900000000000004
1679342847123941442,-0.462
1679342847131638806,-0.47300000000000003
1679342847139336170,-0.422
1679342847147033534,-0.319
1679342847154730898,-0.023
1679342847162428262,0.258
1679342847170125626,0.20600000000000002
1679342847177822990,0.113
1679342847185520354,0.197
1679342847193217718,0.23700000000000002
1679342847200915082,0.201
1679342847208612446,0.20800000000000002
1679342847216309826,0.23700000000000002
1679342847224006911,0.244
1679342847231703996,0.244
1679342847239401081,0.254
1679342847247098166,0.275
1679342847254795251,0.281
1679342847262492336,0.233
1679342847270189421,0.168
1679342847277886506,0.145
1679342847285583591,0.128
1679342847293280676,0.096
1679342847300977761,0.082
1679342847308674846,0.07100000000000001
1679342847316371931,0.065
1679342847324069016,0.08600000000000001
1679342847331766101,0.126
1679342847339463186,0.157
1679342847347160271,0.168
1679342847354857356,0.157
1679342847362554441,0.153
1679342847370251526,0.178
1679342847377948611,0.20800000000000002
1679342847385645696,0.212
1679342847393342781,0.212
1679342847401039866,0.176
1679342847408736951,0.109
1679342847416434036,0.094
1679342847424131121,0.111
1679342847431828206,0.082
1679342847439525291,-0.006
1679342847447222376,-0.134
1679342847454919461,-0.25
1679342847462616546,-0.313
1679342847470313631,-0.34
1679342847478010716,-0.334
1679342847485707801,-0.298
1679342847493404886,-0.277
1679342847501101971,-0.302
1679342847508799056,-0.28300000000000003
1679342847516496141,-0.077
1679342847524193226,0.267
1679342847531890311,0.387
1679342847539587396,-0.004
1679342847547284481,-0.5650000000000001
1679342847554981566,-0.6960000000000001
1679342847562678651,-0.464
1679342847570375736,-0.29
1679342847578072821,-0.231
1679342847585769906,-0.199
1679342847593466991,-0.185
1679342847601164076,-0.166
1679342847608861161,-0.124
1679342847616558246,-0.09
1679342847624255331,-0.075
1679342847631952416,-0.063
1679342847639649501,-0.037
1679342847647346586,-0.006
1679342847655043671,0.014
1679342847662740756,0.035
1679342847670437841,0.046
1679342847678134926,0.023
1679342847685832011,-0.002
1679342847693529096,-0.01
1679342847701226181,-0.008
1679342847708923266,0.004
1679342847716620351,0.012
1679342847724317436,0.014,,740
1679342847732014521,0.031
1679342847739711606,0.046
1679342847747408691,0.046
1679342847755105776,0.056
1679342847762802861,0.065
1679342847770499946,0.033
1679342847778197070,-0.023,82
1679342847785893946,-0.042
1679342847793590822,-0.037
1679342847801287698,-0.056
1679342847808984574,-0.08600000000000001
1679342847816681450,-0.10300000000000001
1679342847824378326,-0.124
1679342847832075202,-0.18
1679342847839772078,-0.233
1679342847847468954,-0.218
1679342847855165830,-0.191
1679342847862862706,-0.20600000000000002
1679342847870559582,-0.20400000000000001
1679342847878256458,-0.161
1679342847885953334,-0.132
1679342847893650210,-0.128
1679342847901347086,-0.132
1679342847909043962,-0.17400000000000002
1679342847916740838,-0.229
1679342847924437714,-0.222
1679342847932134590,-0.189
1679342847939831466,-0.166
1679342847947528342,-0.151
1679342847955225218,-0.149
1679342847962922094,-0.136
1679342847970618970,-0.098
1679342847978315846,-0.073
1679342847986012722,-0.067
1679342847993709598,-0.048
1679342848001406474,-0.027
1679342848009103350,-0.01
1679342848016800226,-0.004
1679342848024497102,-0.016
1679342848032193978,-0.008
1679342848039890854,0.008
1679342848047587730,0.0
1679342848055284606,0.004
1679342848062981482,0.037
1679342848070678358,0.056
1679342848078375234,0.061
1679342848086072110,0.082
1679342848093768986,0.105
1679342848101465862,0.113
1679342848109162738,0.132
1679342848116859614,0.17400000000000002
1679342848124556490,0.21
1679342848132253366,0.201
1679342848139950242,0.17400000000000002
1679342848147647118,0.17400000000000002
1679342848155343994,0.195
1679342848163040870,0.199
1679342848170737746,0.201
1679342848178434622,0.218
1679342848186131498,0.231
1679342848193828374,0.222
1679342848201525250,0.21
1679342848209222126,0.22
1679342848216919002,0.328
1679342848224615878,0.597
1679342848232312754,0.891
1679342848240009630,0.843
1679342848247706506,0.328
1679342848255403382,-0.115
1679342848263100258,-0.077
1679342848270797134,0.11900000000000001
1679342848278494010,0.17
1679342848286190886,0.151
1679342848293887762,0.145
1679342848301584638,0.149
1679342848309281514,0.151
1679342848316978390,0.145
1679342848324675266,0.138
1679342848332372142,0.145
1679342848340069054,0.157,83
1679342848347765930,0.166
1679342848355462806,0.183
1679342848363159682,0.199
1679342848370856558,0.159
1679342848378553434,0.096
1679342848386250310,0.1
1679342848393947186,0.145
1679342848401644062,0.147
1679342848409340938,0.105
1679342848417037814,0.063
1679342848424734690,0.069,,699
1679342848432431566,0.09
1679342848440128442,0.09
1679342848447825318,0.094
1679342848455522194,0.079
1679342848463219070,0.031
1679342848470915946,-0.016
1679342848478612822,-0.046
1679342848486309698,-0.067
1679342848494006574,-0.096
1679342848501703450,-0.134
1679342848509400326,-0.183
1679342848517097202,-0.246
1679342848524794078,-0.279
1679342848532490954,-0.262
1679342848540187830,-0.244
1679342848547884706,-0.248
1679342848555581582,-0.256
1679342848563278458,-0.241
1679342848570975334,-0.20600000000000002
1679342848578672210,-0.187
1679342848586369086,-0.176
1679342848594065962,-0.155
1679342848601762838,-0.138
1679342848609459714,-0.13
1679342848617156590,-0.115
1679342848624853466,-0.08600000000000001
1679342848632550342,-0.056
1679342848640247218,-0.05
1679342848647944094,-0.058
1679342848655640970,-0.042
1679342848663337846,-0.004
1679342848671034722,0.008
1679342848678731598,0.012
1679342848686428474,0.033
1679342848694125350,0.046
1679342848701822226,0.042
1679342848709519102,0.054
1679342848717215978,0.08600000000000001
1679342848724912854,0.111
1679342848732609730,0.111
1679342848740306606,0.10300000000000001
1679342848748003482,0.115
1679342848755700358,0.115
1679342848763397234,0.075
1679342848771094110,0.061
1679342848778790986,0.084
1679342848786487862,0.084
1679342848794184738,0.075
1679342848801881614,0.098
1679342848809578490,0.136
1679342848817275366,0.157
1679342848824972242,0.161
1679342848832669118,0.166
1679342848840365994,0.18
1679342848848062870,0.183
1679342848855759746,0.168
1679342848863456622,0.168
1679342848871153498,0.185
1679342848878850374,0.178
1679342848886547250,0.159
1679342848894244126,0.17400000000000002
1679342848901941038,0.20400000000000001
1679342848909638332,0.201
1679342848917335626,0.128
1679342848925032920,0.065
1679342848932730214,0.199
1679342848940427508,0.498
1679342848948124802,0.664
1679342848955822096,0.41400000000000003
1679342848963519390,-0.14300000000000002
1679342848971216684,-0.445
1679342848978913978,-0.296
1679342848986611272,-0.075
1679342848994308566,0.004
1679342849002005860,0.025
1679342849009703154,0.016
1679342849017400448,-0.004
1679342849025097742,-0.018000000000000002
1679342849032795036,-0.039
1679342849040492330,-0.046
1679342849048189624,-0.012
1679342849055886918,0.006
1679342849063584212,-0.002
1679342849071281506,0.006
1679342849078978800,0.037
1679342849086676094,0.063
1679342849094373388,0.075
1679342849102070682,0.092
1679342849109767976,0.111,,690
1679342849117465270,0.126
1679342849125162564,0.145
1679342849132859858,0.17400000000000002
1679342849140557152,0.212
1679342849148254446,0.23700000000000002
1679342849155951740,0.233
1679342849163649034,0.229
1679342849171346328,0.25
1679342849179043622,0.262
1679342849186740916,0.244
1679342849194438210,0.199
1679342849202135504,0.145
1679342849209832798,0.09
1679342849217530092,0.033
1679342849225227386,0.004
1679342849232924680,0.004
1679342849240621974,-0.004
1679342849248319268,-0.05
1679342849256016562,-0.1
1679342849263713856,-0.105
1679342849271411150,-0.092
1679342849279108444,-0.094
1679342849286805738,-0.082
1679342849294503032,-0.067
1679342849302200326,-0.073
1679342849309897620,-0.069
1679342849317594914,-0.037
1679342849325292208,-0.012
1679342849332989502,-0.014
1679342849340686796,-0.023
1679342849348384090,-0.006
1679342849356081384,0.016
1679342849363778678,0.027
1679342849371475972,0.037
1679342849379173266,0.058
1679342849386870560,0.058
1679342849394567854,0.048
1679342849402265148,0.061
1679342849409962442,0.08600000000000001
1679342849417659736,0.084
1679342849425357030,0.031
1679342849433054324,-0.018000000000000002
1679342849440751618,-0.01
1679342849448448912,0.01
1679342849456146206,0.008
1679342849463843542,0.021,84
1679342849471540418,0.048
1679342849479237294,0.046
1679342849486934170,0.035
1679342849494631046,0.033
1679342849502327922,0.014
1679342849510024798,-0.002
1679342849517721674,0.0
1679342849525418550,0.006
1679342849533115426,0.012
1679342849540812302,-0.002
1679342849548509178,-0.035
1679342849556206054,-0.023
1679342849563902930,0.018000000000000002
1679342849571599806,0.006
1679342849579296682,-0.025
1679342849586993558,-0.01
1679342849594690434,0.046
1679342849602387310,0.151
1679342849610084186,0.252
1679342849617781062,0.387
1679342849625477938,0.612
1679342849633174814,0.6900000000000001
1679342849640871690,0.595
1679342849648568566,0.5740000000000001
1679342849656265442,0.593
1679342849663962318,0.551
1679342849671659194,0.5760000000000001
1679342849679356070,0.6940000000000001
1679342849687052946,0.496
1679342849694749822,-0.067
1679342849702446698,-0.332
1679342849710143574,-0.126
1679342849717840450,0.075
1679342849725537326,0.145
1679342849733234202,0.353
1679342849740931078,0.62
1679342849748627954,0.582
1679342849756324830,0.40800000000000003
1679342849764021706,0.42
1679342849771718582,0.458
1679342849779415458,0.406
1679342849787112334,0.391
1679342849794809210,0.41200000000000003
1679342849802506086,0.403,,690
1679342849810202962,0.397
1679342849817899838,0.403
1679342849825596714,0.41200000000000003
1679342849833293590,0.435
1679342849840990466,0.456
1679342849848687342,0.443
1679342849856384218,0.443
1679342849864081094,0.47100000000000003
1679342849871777970,0.47900000000000004
1679342849879474846,0.47500000000000003
1679342849887171722,0.47500000000000003
1679342849894868598,0.445
1679342849902565474,0.389
1679342849910262350,0.342
1679342849917959226,0.28800000000000003
1679342849925656102,0.191
1679342849933352978,0.088
1679342849941049854,0.027
1679342849948746730,0.01
1679342849956443606,-0.008
1679342849964140482,-0.039
1679342849971837358,-0.052000000000000005
1679342849979534234,-0.046
1679342849987231110,-0.075
1679342849994927986,-0.122
1679342850002624862,-0.117
1679342850010321738,-0.082
1679342850018018614,-0.07100000000000001
1679342850025715526,-0.079
1679342850033412611,-0.075
1679342850041109696,-0.054
1679342850048806781,-0.037
1679342850056503866,-0.029
1679342850064200951,-0.008
1679342850071898036,0.01
1679342850079595121,-0.021
1679342850087292206,-0.077
1679342850094989291,-0.079
1679342850102686376,-0.046
1679342850110383461,-0.037
1679342850118080546,-0.044
1679342850125777631,-0.037
1679342850133474716,-0.021
1679342850141171801,-0.008
1679342850148868886,-0.002
1679342850156565971,0.023
1679342850164263056,0.05
1679342850171960141,0.05
1679342850179657226,0.042
1679342850187354311,0.069
1679342850195051396,0.1
1679342850202748481,0.107
1679342850210445566,0.111
1679342850218142651,0.126
1679342850225839736,0.14300000000000002
1679342850233536821,0.138
1679342850241233906,0.115
1679342850248930991,0.117
1679342850256628076,0.145
1679342850264325161,0.138
1679342850272022246,0.138
1679342850279719331,0.183
1679342850287416416,0.22
1679342850295113501,0.225
1679342850302810586,0.227
1679342850310507671,0.225
1679342850318204756,0.212
1679342850325901841,0.21
1679342850333598926,0.225
1679342850341296011,0.248
1679342850348993096,0.254
1679342850356690181,0.241
1679342850364387266,0.241
1679342850372084351,0.25
1679342850379781436,0.241
1679342850387478521,0.313
1679342850395175606,0.582
1679342850402872691,0.912
1679342850410569776,0.91
1679342850418266861,0.368
1679342850425963946,-0.227
1679342850433661031,-0.29
1679342850441358116,-0.063
1679342850449055201,0.018000000000000002
1679342850456752286,0.027
1679342850464449371,0.069
1679342850472146456,0.077
1679342850479843541,0.046
1679342850487540626,0.018000000000000002
1679342850495237711,0.008
1679342850502934796,0.004,,698
1679342850510631881,0.014
1679342850518328966,0.046
1679342850526026051,0.073
1679342850533723136,0.073
1679342850541420221,0.07100000000000001
1679342850549117306,0.096
1679342850556814391,0.128
1679342850564511476,0.138
1679342850572208561,0.149
1679342850579905646,0.159
1679342850587602768,0.14,84
1679342850595299853,0.117
1679342850602996938,0.122
1679342850610694023,0.122
1679342850618391108,0.111
1679342850626088193,0.096
1679342850633785278,0.077
1679342850641482363,0.065
1679342850649179448,0.029
1679342850656876533,-0.046
1679342850664573618,-0.09
1679342850672270703,-0.092
1679342850679967788,-0.126
1679342850687664873,-0.166
1679342850695361958,-0.155
1679342850703059043,-0.13
1679342850710756128,-0.132
1679342850718453213,-0.136
1679342850726150298,-0.153
1679342850733847383,-0.185
1679342850741544468,-0.189
1679342850749241553,-0.168
1679342850756938638,-0.14300000000000002
1679342850764635723,-0.128
1679342850772332808,-0.128
1679342850780029893,-0.124
1679342850787726978,-0.09
1679342850795424063,-0.056
1679342850803121148,-0.044
1679342850810818233,-0.042
1679342850818515318,-0.031
1679342850826212403,-0.029
1679342850833909488,-0.033
1679342850841606573,-0.021
1679342850849303658,0.016
1679342850857000743,0.039
1679342850864697828,0.031
1679342850872394913,0.035
1679342850880091998,0.069
1679342850887789083,0.088
1679342850895486168,0.084
1679342850903183253,0.096
1679342850910880338,0.11900000000000001
1679342850918577423,0.128
1679342850926274508,0.096
1679342850933971593,0.039
1679342850941668678,0.037
1679342850949365763,0.063
1679342850957062848,0.046
1679342850964759933,0.037
1679342850972457018,0.042
1679342850980154103,0.006
1679342850987851188,-0.012
1679342850995548273,0.021
1679342851003245358,0.042
1679342851010942443,0.044
1679342851018639528,0.07100000000000001
1679342851026336613,0.107
1679342851034033698,0.122
1679342851041730783,0.109
1679342851049427868,0.096
1679342851057124953,0.109
1679342851064822038,0.132
1679342851072519123,0.147
1679342851080216208,0.157
1679342851087913293,0.18
1679342851095610378,0.185
1679342851103307463,0.14
1679342851111004548,0.113
1679342851118701633,0.256
1679342851126398718,0.589
1679342851134095803,0.8300000000000001
1679342851141792888,0.607
1679342851149490012,0.033
1679342851157186888,-0.265
1679342851164883764,-0.105
1679342851172580640,0.092
1679342851180277516,0.147
1679342851187974392,0.149
1679342851195671268,0.1
1679342851203368144,0.058,,705
1679342851211065020,0.084
1679342851218761896,0.092
1679342851226458772,0.052000000000000005
1679342851234155648,0.044
1679342851241852524,0.067
1679342851249549400,0.069
1679342851257246276,0.069
1679342851264943152,0.092
1679342851272640028,0.09
1679342851280336904,0.05
1679342851288033780,0.025
1679342851295730656,0.021
1679342851303427532,0.021
1679342851311124408,0.035
1679342851318821284,0.048
1679342851326518160,0.054
1679342851334215036,0.069
1679342851341911912,0.079
1679342851349608788,0.084
1679342851357305664,0.1
1679342851365002540,0.109
1679342851372699416,0.079
1679342851380396292,0.054
1679342851388093168,0.054
1679342851395790044,0.039
1679342851403486920,0.01
1679342851411183796,-0.014
1679342851418880672,-0.046
1679342851426577548,-0.092
1679342851434274424,-0.14
1679342851441971300,-0.164
1679342851449668176,-0.149
1679342851457365052,-0.134
1679342851465061928,-0.153
1679342851472758804,-0.17200000000000001
1679342851480455680,-0.145
1679342851488152556,-0.115
1679342851495849432,-0.107
1679342851503546308,-0.094
1679342851511243184,-0.073
1679342851518940060,-0.063
1679342851526636936,-0.052000000000000005
1679342851534333812,-0.029
1679342851542030688,0.0
1679342851549727564,0.012
1679342851557424440,0.01
1679342851565121316,0.025
1679342851572818192,0.058
1679342851580515068,0.077
1679342851588211944,0.079
1679342851595908820,0.094
1679342851603605696,0.113
1679342851611302572,0.117
1679342851618999448,0.124
1679342851626696324,0.145
1679342851634393200,0.168
1679342851642090076,0.168
1679342851649786952,0.159
1679342851657483828,0.17200000000000001
1679342851665180704,0.195
1679342851672877580,0.201
1679342851680574456,0.20600000000000002
1679342851688271332,0.227
1679342851695968208,0.233
1679342851703665084,0.216
1679342851711361996,0.197,84
1679342851719059290,0.176
1679342851726756584,0.17200000000000001
1679342851734453878,0.178
1679342851742151172,0.178
1679342851749848466,0.193
1679342851757545760,0.199
1679342851765243054,0.14
1679342851772940348,0.084
1679342851780637642,0.088
1679342851788334936,0.084
1679342851796032230,0.035
1679342851803729524,0.004
1679342851811426818,-0.006
1679342851819124112,-0.021
1679342851826821406,-0.039
1679342851834518700,-0.07100000000000001
1679342851842215994,-0.088
1679342851849913288,0.004
1679342851857610582,0.269
1679342851865307876,0.5720000000000001
1679342851873005170,0.528
1679342851880702464,-0.002
1679342851888399758,-0.456
1679342851896097052,-0.372
1679342851903794346,-0.105
1679342851911491640,-0.023
1679342851919188934,-0.012,,713
1679342851926886228,0.021
1679342851934583522,-0.012
1679342851942280816,-0.092
1679342851949978110,-0.1
1679342851957675404,-0.09
1679342851965372698,-0.145
1679342851973069992,-0.199
1679342851980767286,-0.201
1679342851988464580,-0.195
1679342851996161874,-0.222
1679342852003859168,-0.23900000000000002
1679342852011556462,-0.22
1679342852019253756,-0.20600000000000002
1679342852026951050,-0.195
1679342852034648344,-0.17
1679342852042345638,-0.132
1679342852050042932,-0.094
1679342852057740226,-0.073
1679342852065437520,-0.069
1679342852073134814,-0.05
1679342852080832108,-0.012
1679342852088529402,0.01
1679342852096226696,0.008
1679342852103923990,0.01
1679342852111621284,0.01
1679342852119318578,-0.006
1679342852127015872,-0.023
1679342852134713166,-0.023
1679342852142410460,-0.018000000000000002
1679342852150107754,-0.035
1679342852157805048,-0.061
1679342852165502342,-0.061
1679342852173199636,-0.035
1679342852180896930,-0.025
1679342852188594224,-0.021
1679342852196291518,0.002
1679342852203988812,-0.012
1679342852211686106,-0.061
1679342852219383400,-0.061
1679342852227080694,-0.012
1679342852234777988,0.023
1679342852242475282,0.029
1679342852250172576,0.021
1679342852257869870,0.002
1679342852265567164,-0.073
1679342852273264498,-0.21,84
1679342852280961374,-0.28800000000000003
1679342852288658250,-0.262
1679342852296355126,-0.252
1679342852304052002,-0.296
1679342852311748878,-0.296
1679342852319445754,-0.23500000000000001
1679342852327142630,-0.18
1679342852334839506,-0.096
1679342852342536382,0.088
1679342852350233258,0.244
1679342852357930134,0.231
1679342852365627010,0.189
1679342852373323886,0.222
1679342852381020762,0.244
1679342852388717638,0.225
1679342852396414514,0.214
1679342852404111390,0.231
1679342852411808266,0.256
1679342852419505142,0.258
1679342852427202018,0.241
1679342852434898894,0.201
1679342852442595770,0.138
1679342852450292646,0.096
1679342852457989522,0.096
1679342852465686398,0.113
1679342852473383274,0.134
1679342852481080150,0.122
1679342852488777026,0.088
1679342852496473902,0.09
1679342852504170778,0.10300000000000001
1679342852511867654,0.079
1679342852519564530,0.054
1679342852527261406,0.063
1679342852534958282,0.077
1679342852542655158,0.088
1679342852550352034,0.107
1679342852558048910,0.08600000000000001
1679342852565745786,-0.039
1679342852573442662,0.084
1679342852581139538,0.616
1679342852588836414,0.854
1679342852596533290,0.454
1679342852604230166,-0.088
1679342852611927042,-0.273
1679342852619623918,-0.126
1679342852627320794,0.052000000000000005
1679342852635017670,0.159
1679342852642714546,0.20400000000000001
1679342852650411422,0.218,,731
1679342852658108298,0.23900000000000002
1679342852665805174,0.23900000000000002
1679342852673502050,0.216
1679342852681198926,0.21
1679342852688895802,0.214
1679342852696592678,0.191
1679342852704289554,0.153
1679342852711986430,0.164
1679342852719683306,0.18
1679342852727380182,0.14300000000000002
1679342852735077058,0.138
1679342852742773934,0.195
1679342852750470810,0.20600000000000002
1679342852758167686,0.164
1679342852765864562,0.159
1679342852773561438,0.187
1679342852781258314,0.20400000000000001
1679342852788955190,0.22
1679342852796652066,0.23500000000000001
1679342852804348942,0.20600000000000002
1679342852812045818,0.149
1679342852819742694,0.14
1679342852827439570,0.168
1679342852835136484,0.164
1679342852842833639,0.13
1679342852850530794,0.109
1679342852858227949,0.134
1679342852865925104,0.13
1679342852873622259,0.077
1679342852881319414,0.021
1679342852889016569,-0.025
1679342852896713724,0.033
1679342852904410879,0.016
1679342852912108034,-0.328
1679342852919805189,-0.536
1679342852927502344,-0.128
1679342852935199499,0.229
1679342852942896654,0.021
1679342852950593809,-0.145
1679342852958290964,-0.052000000000000005
1679342852965988119,-0.098
1679342852973685274,-0.21
1679342852981382429,-0.115
1679342852989079584,-0.027
1679342852996776739,-0.126
1679342853004473894,-0.197
1679342853012171049,-0.323
1679342853019868204,-0.5630000000000001
1679342853027565359,-0.553
1679342853035262514,-0.389
1679342853042959669,-0.315
1679342853050656824,-0.25
1679342853058353979,-0.262
1679342853066051134,-0.359
1679342853073748289,-0.378
1679342853081445444,-0.334
1679342853089142599,-0.313
1679342853096839754,-0.28300000000000003
1679342853104536909,-0.227
1679342853112234064,-0.191
1679342853119931219,-0.17400000000000002
1679342853127628374,-0.13
1679342853135325529,-0.07100000000000001
1679342853143022684,-0.05
1679342853150719839,-0.056
1679342853158416994,-0.039
1679342853166114149,-0.012
1679342853173811304,-0.01
1679342853181508459,0.004
1679342853189205614,0.031
1679342853196902769,0.021
1679342853204599924,0.0
1679342853212297079,-0.012
1679342853219994234,-0.037
1679342853227691389,-0.069
1679342853235388544,-0.09
1679342853243085699,-0.08600000000000001
1679342853250782854,-0.065
1679342853258480009,-0.054
1679342853266177164,-0.067
1679342853273874319,-0.077
1679342853281571474,-0.07100000000000001
1679342853289268629,-0.012
1679342853296965784,0.20600000000000002
1679342853304662939,0.559
1679342853312360094,0.725
1679342853320057249,0.34900000000000003
1679342853327754404,-0.273
1679342853335451559,-0.441
1679342853343148714,-0.17400000000000002
1679342853350845869,0.01
1679342853358543024,0.027
1679342853366240179,0.061
1679342853373937334,0.1
1679342853381634489,0.094,,728
1679342853389331644,0.075
1679342853397028814,0.069,84
1679342853404725620,0.044
1679342853412422426,-0.01
1679342853420119232,-0.027
1679342853427816038,-0.004
1679342853435512844,-0.021
1679342853443209650,-0.10300000000000001
1679342853450906456,-0.18
1679342853458603262,-0.189
1679342853466300068,-0.18
1679342853473996874,-0.222
1679342853481693680,-0.246
1679342853489390486,-0.20600000000000002
1679342853497087292,-0.185
1679342853504784098,-0.191
1679342853512480904,-0.164
1679342853520177710,-0.11900000000000001
1679342853527874516,-0.1
1679342853535571322,-0.10300000000000001
1679342853543268128,-0.10300000000000001
1679342853550964934,-0.092
1679342853558661740,-0.092
1679342853566358546,-0.10300000000000001
1679342853574055352,-0.1
1679342853581752158,-0.09
1679342853589448964,-0.105
1679342853597145770,-0.136
1679342853604842576,-0.138
1679342853612539382,-0.079
1679342853620236188,0.008
1679342853627932994,0.061
1679342853635629800,0.067
1679342853643326606,0.115
1679342853651023412,0.187
1679342853658720218,0.164
1679342853666417024,0.136
1679342853674113830,0.233
1679342853681810636,0.296
1679342853689507442,0.353
1679342853697204248,0.555
1679342853704901054,0.616
1679342853712597860,0.462
1679342853720294666,0.424
1679342853727991472,0.496
1679342853735688278,0.47100000000000003
1679342853743385084,0.431
1679342853751081890,0.458
1679342853758778696,0.47900000000000004
1679342853766475502,0.47300000000000003
1679342853774172308,0.464
1679342853781869114,0.458
1679342853789565920,0.47100000000000003
1679342853797262726,0.49
1679342853804959532,0.35100000000000003
1679342853812656338,0.094
1679342853820353144,0.25
1679342853828049950,0.662
1679342853835746756,0.618
1679342853843443562,0.448
1679342853851140368,0.559
1679342853858837174,0.597
1679342853866533980,0.47500000000000003
1679342853874230786,0.456
1679342853881927592,0.517
1679342853889624398,0.517
1679342853897321204,0.511
1679342853905018010,0.559
1679342853912714816,0.584
1679342853920411622,0.525
1679342853928108428,0.397
1679342853935805234,0.214
1679342853943502040,0.11900000000000001
1679342853951198846,0.20600000000000002
1679342853958895710,0.105
1679342853966592795,-0.34700000000000003
1679342853974289880,-0.578
1679342853981986965,-0.397
1679342853989684050,-0.296
1679342853997381135,-0.307
1679342854005078220,-0.178
1679342854012775305,0.067
1679342854020472390,0.521
1679342854028169475,0.9570000000000001
1679342854035866560,0.647
1679342854043563645,-0.044
1679342854051260730,-0.092
1679342854058957815,0.248
1679342854066654900,0.311
1679342854074351985,0.275
1679342854082049070,0.34
1679342854089746155,0.35100000000000003
1679342854097443240,0.305
1679342854105140325,0.296,,728
1679342854112837410,0.294
1679342854120534495,0.265
1679342854128231580,0.241
1679342854135928665,0.214
1679342854143625750,0.178
1679342854151322835,0.157
1679342854159019920,0.151
1679342854166717005,0.136
1679342854174414090,0.122
1679342854182111175,0.096
1679342854189808260,0.058
1679342854197505345,0.058
1679342854205202430,0.10300000000000001
1679342854212899515,0.124
1679342854220596600,0.09
1679342854228293685,0.069
1679342854235990770,0.088
1679342854243687855,0.126
1679342854251384940,0.134
1679342854259082025,0.016
1679342854266779110,-0.231
1679342854274476195,-0.464
1679342854282173280,-0.58
1679342854289870365,-0.586
1679342854297567450,-0.553
1679342854305264535,-0.523
1679342854312961620,-0.496
1679342854320658705,-0.452
1679342854328355790,-0.248
1679342854336052875,0.13
1679342854343749960,0.254
1679342854351447045,-0.048
1679342854359144130,-0.271
1679342854366841215,-0.231
1679342854374538300,-0.258
1679342854382235385,-0.277
1679342854389932470,-0.153
1679342854397629555,-0.09
1679342854405326640,-0.105
1679342854413023725,-0.08600000000000001
1679342854420720810,-0.08600000000000001
1679342854428417895,-0.147
1679342854436114980,-0.176
1679342854443812065,-0.161
1679342854451509150,-0.195
1679342854459206235,-0.252
1679342854466903320,-0.227
1679342854474600405,-0.191
1679342854482297490,-0.222
1679342854489994575,-0.216
1679342854497691660,-0.17400000000000002
1679342854505388745,-0.157
1679342854513085830,0.061
1679342854520782954,0.452,84
1679342854528480178,0.519
1679342854536177402,0.41000000000000003
1679342854543874626,0.511
1679342854551571850,0.5740000000000001
1679342854559269074,0.492
1679342854566966298,0.46
1679342854574663522,0.382
1679342854582360746,0.10300000000000001
1679342854590057970,-0.08600000000000001
1679342854597755194,0.132
1679342854605452418,0.448
1679342854613149642,0.433
1679342854620846866,0.256
1679342854628544090,0.124
1679342854636241314,0.039
1679342854643938538,0.23700000000000002
1679342854651635762,0.528
1679342854659332986,0.47500000000000003
1679342854667030210,0.34900000000000003
1679342854674727434,0.363
1679342854682424658,0.309
1679342854690121882,0.216
1679342854697819106,0.18
1679342854705516330,0.149
1679342854713213554,0.117
1679342854720910778,0.113
1679342854728608002,0.098
1679342854736305226,0.122
1679342854744002450,0.313
1679342854751699674,0.637
1679342854759396898,0.776
1679342854767094122,0.422
1679342854774791346,-0.126
1679342854782488570,-0.363
1679342854790185794,-0.422
1679342854797883018,-0.359
1679342854805580242,0.021
1679342854813277466,0.281
1679342854820974690,0.18
1679342854828671914,0.134
1679342854836369138,0.199,,733
1679342854844066362,0.17200000000000001
1679342854851763586,0.113
1679342854859460810,0.105
1679342854867158034,0.09
1679342854874855258,0.056
1679342854882552482,0.029
1679342854890249706,0.016
1679342854897946930,0.027
1679342854905644154,0.048
1679342854913341378,0.048
1679342854921038602,0.025
1679342854928735826,0.023
1679342854936433050,0.044
1679342854944130274,0.056
1679342854951827498,0.056
1679342854959524722,0.033
1679342854967221946,-0.033
1679342854974919170,-0.07100000000000001
1679342854982616394,-0.039
1679342854990313618,-0.014
1679342854998010842,-0.05
1679342855005708066,-0.176
1679342855013405290,-0.34700000000000003
1679342855021102514,-0.45
1679342855028799738,-0.49
1679342855036496962,-0.513
1679342855044194186,-0.506
1679342855051891410,-0.485
1679342855059588634,-0.47300000000000003
1679342855067285858,-0.443
1679342855074983082,-0.378
1679342855082680368,-0.311
1679342855090377314,-0.269
1679342855098074260,-0.252
1679342855105771206,-0.229
1679342855113468152,-0.185
1679342855121165098,-0.178
1679342855128862044,-0.227
1679342855136558990,-0.231
1679342855144255936,-0.178
1679342855151952882,-0.145
1679342855159649828,-0.151
1679342855167346774,-0.17
1679342855175043720,-0.164
1679342855182740666,-0.155
1679342855190437612,-0.17200000000000001
1679342855198134558,-0.22
1679342855205831504,-0.26
1679342855213528450,-0.218
1679342855221225396,-0.193
1679342855228922342,-0.248
1679342855236619288,-0.25
1679342855244316234,-0.201
1679342855252013180,-0.195
1679342855259710126,-0.185
1679342855267407072,-0.145
1679342855275104018,-0.122
1679342855282800964,-0.10300000000000001
1679342855290497910,-0.067
1679342855298194856,-0.054
1679342855305891802,-0.054
1679342855313588748,-0.021
1679342855321285694,0.023
1679342855328982640,0.058
1679342855336679586,0.1
1679342855344376532,0.168
1679342855352073478,0.222
1679342855359770424,0.197
1679342855367467370,0.14
1679342855375164316,0.147
1679342855382861262,0.21
1679342855390558208,0.275
1679342855398255154,0.277
1679342855405952100,0.197
1679342855413649046,0.164
1679342855421345992,0.227
1679342855429042938,0.277
1679342855436739884,0.271
1679342855444436830,0.227
1679342855452133776,0.136
1679342855459830722,0.014
1679342855467527668,-0.067
1679342855475224614,-0.018000000000000002
1679342855482921560,0.265
1679342855490618506,0.679
1679342855498315452,0.799
1679342855506012398,0.376
1679342855513709344,-0.132
1679342855521406290,-0.168
1679342855529103236,0.105
1679342855536800182,0.28300000000000003
1679342855544497128,0.328
1679342855552194074,0.34700000000000003
1679342855559891020,0.376,,720
1679342855567587966,0.382
1679342855575284912,0.34700000000000003
1679342855582981858,0.309
1679342855590678804,0.305
1679342855598375750,0.281
1679342855606072696,0.231
1679342855613769642,0.214
1679342855621466588,0.214
1679342855629163534,0.193
1679342855636860480,0.17400000000000002
1679342855644557440,0.176,83
1679342855652254316,0.164
1679342855659951192,0.1
1679342855667648068,0.069
1679342855675344944,0.107
1679342855683041820,0.117
1679342855690738696,0.058
1679342855698435572,-0.025
1679342855706132448,-0.069
1679342855713829324,-0.042
1679342855721526200,0.021
1679342855729223076,-0.042
1679342855736919952,-0.269
1679342855744616828,-0.248
1679342855752313704,0.054
1679342855760010580,0.052000000000000005
1679342855767707456,-0.128
1679342855775404332,0.012
1679342855783101208,0.197
1679342855790798084,0.153
1679342855798494960,0.105
1679342855806191836,0.105
1679342855813888712,0.075
1679342855821585588,0.082
1679342855829282464,0.111
1679342855836979340,0.14300000000000002
1679342855844676216,0.183
1679342855852373092,0.17400000000000002
1679342855860069968,0.159
1679342855867766844,0.18
1679342855875463720,0.189
1679342855883160596,0.191
1679342855890857472,0.20400000000000001
1679342855898554348,0.189
1679342855906251224,0.147
1679342855913948100,0.149
1679342855921644976,0.18
1679342855929341852,0.191
1679342855937038728,0.18
1679342855944735604,0.178
1679342855952432480,0.193
1679342855960129356,0.193
1679342855967826232,0.145
1679342855975523108,0.10300000000000001
1679342855983219984,0.113
1679342855990916860,0.115
1679342855998613736,0.096
1679342856006310612,0.115
1679342856014007488,0.145
1679342856021704364,0.149
1679342856029401240,0.147
1679342856037098116,0.153
1679342856044794992,0.157
1679342856052491868,0.168
1679342856060188744,0.18
1679342856067885620,0.199
1679342856075582496,0.216
1679342856083279372,0.214
