ts,red,ir,green
1679342873727769,188013.0,227088.0,11473.0
1679342873736769,188004.0,227117.0,11496.0
1679342873747769,188014.0,227108.0,11465.0
1679342873757768,188035.0,227096.0,11485.0
1679342873767768,188050.0,227118.0,11491.0
1679342873777768,188081.0,227116.0,11472.0
1679342873787768,188069.0,227112.0,11500.0
1679342873797769,188087.0,227086.0,11512.0
1679342873807769,188116.0,227070.0,11500.0
1679342873817769,188135.0,227130.0,11509.0
1679342873827769,188132.0,227147.0,11509.0
1679342873837769,188149.0,227153.0,11506.0
1679342873846769,188159.0,227108.0,11486.0
1679342873857769,188171.0,227176.0,11510.0
1679342873867769,188144.0,227115.0,11520.0
1679342873877769,188164.0,227160.0,11524.0
1679342873887769,188168.0,227141.0,11526.0
1679342873896769,188178.0,227136.0,11509.0
1679342873907769,188211.0,227155.0,11491.0
1679342873917769,188246.0,227180.0,11522.0
1679342873926769,188265.0,227171.0,11481.0
1679342873936769,188287.0,227151.0,11507.0
1679342873947769,188320.0,227147.0,11538.0
1679342873957769,188337.0,227173.0,11508.0
1679342873966769,188364.0,227174.0,11498.0
1679342873977769,188401.0,227185.0,11537.0
1679342873987769,188403.0,227194.0,11556.0
1679342873997769,188431.0,227203.0,11537.0
1679342874006769,188465.0,227205.0,11536.0
1679342874016769,188395.0,227234.0,11565.0
1679342874027769,188457.0,227233.0,11552.0
1679342874037769,188482.0,227231.0,11541.0
1679342874047769,188454.0,227158.0,11559.0
1679342874056769,188438.0,227183.0,11560.0
1679342874067769,188408.0,227188.0,11553.0
1679342874077769,188366.0,227139.0,11541.0
1679342874087769,188319.0,227153.0,11552.0
1679342874096769,188293.0,227151.0,11554.0
1679342874107769,188307.0,227121.0,11534.0
1679342874117769,188354.0,227136.0,11506.0
1679342874127769,188364.0,227119.0,11518.0
1679342874136769,188360.0,227133.0,11532.0
1679342874147769,188400.0,227154.0,11510.0
1679342874157769,188420.0,227147.0,11547.0
1679342874167769,188413.0,227171.0,11531.0
1679342874176769,188427.0,227200.0,11563.0
1679342874187769,188462.0,227204.0,11537.0
1679342874197769,188464.0,227222.0,11565.0
1679342874207769,188496.0,227211.0,11569.0
1679342874216769,188528.0,227218.0,11575.0
1679342874227769,188580.0,227196.0,11565.0
1679342874237769,188617.0,227240.0,11577.0
1679342874247769,188632.0,227271.0,11591.0
1679342874256769,188645.0,227191.0,11573.0
1679342874267769,188647.0,227253.0,11585.0
1679342874276769,188672.0,227279.0,11594.0
1679342874287769,188684.0,227303.0,11585.0
1679342874297769,188676.0,227288.0,11588.0
1679342874307769,188635.0,227314.0,11597.0
1679342874316769,188601.0,227303.0,11585.0
1679342874327769,188611.0,227296.0,11576.0
1679342874337769,188623.0,227275.0,11549.0
1679342874347769,188598.0,227252.0,11568.0
1679342874356769,188610.0,227272.0,11567.0
1679342874367769,188572.0,227270.0,11586.0
1679342874377769,188522.0,227251.0,11581.0
1679342874386769,188554.0,227213.0,11573.0
1679342874396769,188564.0,227213.0,11572.0
1679342874407769,188550.0,227234.0,11540.0
1679342874417769,188541.0,227205.0,11549.0
1679342874426769,188543.0,227197.0,11566.0
1679342874437769,188520.0,227213.0,11568.0
1679342874447769,188502.0,227213.0,11563.0
1679342874457769,188481.0,227189.0,11566.0
1679342874466769,188482.0,227177.0,11555.0
1679342874477769,188478.0,227198.0,11561.0
1679342874487769,188497.0,227211.0,11549.0
1679342874497769,188449.0,227186.0,11557.0
1679342874506769,188442.0,227135.0,11556.0
1679342874517769,188415.0,227173.0,11548.0
1679342874527769,188415.0,227146.0,11553.0
1679342874537769,188399.0,227165.0,11552.0
1679342874547769,188394.0,227172.0,11545.0
1679342874557769,188365.0,227183.0,11536.0
1679342874567769,188349.0,227142.0,11552.0
1679342874577769,188342.0,227139.0,11547.0
1679342874587769,188264.0,227180.0,11542.0
1679342874597769,188308.0,227146.0,11531.0
1679342874607769,188298.0,227126.0,11541.0
1679342874616769,188291.0,227118.0,11519.0
1679342874627769,188270.0,227115.0,11524.0
1679342874636769,188250.0,227116.0,11523.0
1679342874647769,188241.0,227123.0,11493.0
1679342874657769,188223.0,227093.0,11520.0
1679342874667769,188228.0,227120.0,11516.0
1679342874678768,188191.0,227108.0,11501.0
1679342874686768,188184.0,227119.0,11509.0
1679342874697769,188146.0,227037.0,11528.0
1679342874707769,188131.0,227082.0,11517.0
1679342874716769,188109.0,227105.0,11505.0
1679342874726769,188106.0,227100.0,11493.0
1679342874737769,188078.0,227046.0,11495.0
1679342874747769,188058.0,227050.0,11494.0
1679342874756769,188037.0,227032.0,11501.0
1679342874766769,188000.0,227017.0,11472.0
1679342874778769,187979.0,227032.0,11467.0
1679342874787769,187965.0,227002.0,11482.0
1679342874797769,187909.0,226984.0,11458.0
1679342874806769,187836.0,226927.0,11455.0
1679342874816769,187771.0,226938.0,11471.0
1679342874827769,187742.0,226890.0,11433.0
1679342874837769,187689.0,226879.0,11454.0
1679342874846769,187664.0,226878.0,11445.0
1679342874856769,187664.0,226860.0,11439.0
1679342874867769,187652.0,226857.0,11442.0
1679342874877769,187660.0,226854.0,11445.0
1679342874886769,187664.0,226865.0,11410.0
1679342874896769,187634.0,226878.0,11455.0
1679342874907769,187654.0,226873.0,11467.0
1679342874917769,187701.0,226841.0,11453.0
1679342874926769,187729.0,226889.0,11465.0
1679342874937769,187754.0,226927.0,11469.0
1679342874946769,187771.0,226957.0,11445.0
1679342874957769,187819.0,226955.0,11415.0
1679342874966769,187833.0,226942.0,11442.0
1679342874976769,187864.0,226967.0,11459.0
1679342874987769,187880.0,226986.0,11492.0
1679342874997769,187897.0,226951.0,11469.0
1679342875006769,187926.0,227007.0,11486.0
1679342875016769,187923.0,227013.0,11484.0
1679342875027768,187923.0,227013.0,11490.0
1679342875037768,187929.0,227027.0,11490.0
1679342875047768,187890.0,226987.0,11486.0
1679342875056769,187872.0,226968.0,11472.0
1679342875066769,187858.0,226986.0,11486.0
1679342875077769,187834.0,226977.0,11436.0
1679342875087769,187804.0,226943.0,11456.0
1679342875096769,187766.0,226907.0,11457.0
1679342875107769,187746.0,226912.0,11452.0
1679342875117769,187717.0,226912.0,11449.0
1679342875127769,187659.0,226923.0,11441.0
1679342875136769,187683.0,226928.0,11430.0
1679342875146769,187659.0,226922.0,11442.0
1679342875157769,187648.0,226937.0,11426.0
1679342875166769,187619.0,226898.0,11420.0
1679342875176769,187622.0,226909.0,11419.0
1679342875187769,187578.0,226897.0,11432.0
1679342875197769,187610.0,226918.0,11440.0
1679342875206769,187578.0,226876.0,11447.0
1679342875216769,187585.0,226856.0,11429.0
1679342875227769,187571.0,226895.0,11441.0
1679342875237769,187552.0,226864.0,11431.0
1679342875246769,187553.0,226852.0,11429.0
1679342875256769,187549.0,226873.0,11410.0
1679342875266769,187548.0,226884.0,11405.0
1679342875277769,187559.0,226887.0,11390.0
1679342875287769,187561.0,226881.0,11405.0
1679342875297769,187533.0,226850.0,11433.0
1679342875306769,187535.0,226920.0,11418.0
1679342875317769,187522.0,226894.0,11425.0
1679342875326769,187471.0,226875.0,11433.0
1679342875337769,187528.0,226878.0,11429.0
1679342875346769,187530.0,226885.0,11431.0
1679342875357769,187516.0,226903.0,11434.0
1679342875366769,187537.0,226856.0,11436.0
1679342875377769,187552.0,226913.0,11422.0
1679342875386769,187570.0,226898.0,11436.0
1679342875396769,187532.0,226890.0,11441.0
1679342875406769,187528.0,226880.0,11448.0
1679342875417769,187569.0,226894.0,11407.0
1679342875426769,187515.0,226889.0,11435.0
1679342875437769,187541.0,226923.0,11433.0
1679342875446769,187535.0,226899.0,11430.0
1679342875457769,187503.0,226869.0,11436.0
1679342875466769,187479.0,226869.0,11425.0
1679342875477769,187457.0,226883.0,11419.0
1679342875486769,187413.0,226825.0,11421.0
1679342875497769,187397.0,226853.0,11413.0
1679342875506769,187342.0,226815.0,11417.0
1679342875516769,187313.0,226807.0,11361.0
1679342875526769,187257.0,226807.0,11359.0
1679342875537769,187206.0,226742.0,11341.0
1679342875546769,187116.0,226709.0,11344.0
1679342875556769,187031.0,226673.0,11329.0
1679342875566769,186949.0,226627.0,11337.0
1679342875577769,186882.0,226642.0,11289.0
1679342875587769,186799.0,226572.0,11319.0
1679342875596769,186759.0,226513.0,11319.0
1679342875607769,186724.0,226495.0,11324.0
1679342875617769,186704.0,226550.0,11319.0
1679342875626769,186692.0,226562.0,11312.0
1679342875636769,186627.0,226541.0,11315.0
1679342875646769,186637.0,226558.0,11303.0
1679342875657769,186671.0,226543.0,11275.0
1679342875667769,186682.0,226549.0,11306.0
1679342875676769,186674.0,226562.0,11306.0
1679342875686769,186674.0,226538.0,11319.0
1679342875697769,186667.0,226589.0,11272.0
1679342875706769,186648.0,226591.0,11315.0
1679342875716769,186668.0,226602.0,11314.0
1679342875726769,186705.0,226605.0,11309.0
1679342875737769,186684.0,226639.0,11330.0
1679342875746769,186655.0,226618.0,11314.0
1679342875756769,186675.0,226621.0,11308.0
1679342875766769,186660.0,226609.0,11314.0
1679342875777769,186689.0,226626.0,11278.0
1679342875787769,186666.0,226623.0,11290.0
1679342875797769,186652.0,226631.0,11299.0
1679342875806769,186657.0,226591.0,11288.0
1679342875816769,186595.0,226608.0,11309.0
1679342875826769,186611.0,226592.0,11307.0
1679342875837769,186619.0,226583.0,11273.0
1679342875846769,186583.0,226487.0,11297.0
1679342875857769,186561.0,226538.0,11311.0
1679342875866769,186563.0,226539.0,11297.0
1679342875877769,186558.0,226503.0,11286.0
1679342875888769,186526.0,226478.0,11290.0
1679342875896768,186514.0,226523.0,11320.0
1679342875906768,186517.0,226531.0,11284.0
1679342875917768,186493.0,226540.0,11286.0
1679342875926768,186475.0,226523.0,11290.0
1679342875936768,186435.0,226529.0,11287.0
1679342875946768,186434.0,226493.0,11288.0
1679342875957769,186466.0,226491.0,11274.0
1679342875966769,186410.0,226488.0,11285.0
1679342875976769,186428.0,226507.0,11273.0
1679342875988769,186401.0,226489.0,11270.0
1679342875997769,186375.0,226493.0,11301.0
1679342876005769,186387.0,226470.0,11251.0
1679342876016769,186343.0,226453.0,11236.0
1679342876026769,186313.0,226386.0,11260.0
1679342876037769,186274.0,226392.0,11252.0
1679342876047769,186229.0,226372.0,11243.0
1679342876056769,186207.0,226378.0,11249.0
1679342876066769,186166.0,226353.0,11245.0
1679342876077769,186126.0,226373.0,11233.0
1679342876087769,186098.0,226354.0,11235.0
1679342876096769,186077.0,226310.0,11230.0
1679342876106769,186028.0,226361.0,11218.0
1679342876117769,186005.0,226367.0,11217.0
1679342876126769,185962.0,226349.0,11227.0
1679342876136769,185961.0,226367.0,11214.0
1679342876146769,185995.0,226386.0,11226.0
1679342876157769,185995.0,226380.0,11216.0
1679342876166769,185950.0,226347.0,11208.0
1679342876176769,185933.0,226356.0,11211.0
1679342876186769,185890.0,226347.0,11216.0
1679342876197769,185853.0,226357.0,11207.0
1679342876206769,185879.0,226267.0,11189.0
1679342876216769,185855.0,226327.0,11207.0
1679342876226769,185824.0,226325.0,11195.0
1679342876237769,185769.0,226331.0,11182.0
1679342876246769,185731.0,226313.0,11180.0
1679342876256769,185695.0,226350.0,11172.0
1679342876266769,185628.0,226264.0,11175.0
1679342876276769,185559.0,226249.0,11154.0
1679342876286769,185508.0,226254.0,11146.0
1679342876297768,185453.0,226209.0,11144.0
1679342876306769,185369.0,226191.0,11102.0
1679342876317769,185327.0,226142.0,11112.0
1679342876326769,185208.0,226165.0,11122.0
1679342876337769,185198.0,226121.0,11107.0
1679342876346769,185175.0,226093.0,11107.0
1679342876356769,185149.0,226043.0,11097.0
1679342876366769,185122.0,226049.0,11094.0
1679342876377769,185119.0,226126.0,11115.0
1679342876386769,185159.0,226085.0,11108.0
1679342876396769,185200.0,226109.0,11103.0
1679342876406769,185241.0,226190.0,11114.0
1679342876417769,185281.0,226220.0,11115.0
1679342876426769,185333.0,226238.0,11124.0
1679342876436769,185397.0,226303.0,11136.0
1679342876446769,185457.0,226321.0,11134.0
1679342876457769,185522.0,226340.0,11142.0
1679342876465768,185555.0,226367.0,11161.0
1679342876476768,185630.0,226398.0,11168.0
1679342876486768,185660.0,226414.0,11181.0
1679342876497769,185733.0,226431.0,11194.0
1679342876505769,185808.0,226453.0,11165.0
1679342876516769,185882.0,226490.0,11204.0
1679342876526769,185876.0,226513.0,11208.0
1679342876537768,185988.0,226500.0,11207.0
1679342876546769,186050.0,226525.0,11224.0
1679342876556769,186093.0,226554.0,11219.0
1679342876566769,186149.0,226550.0,11227.0
1679342876577768,186189.0,226540.0,11249.0
1679342876587768,186259.0,226543.0,11248.0
1679342876596768,186319.0,226611.0,11263.0
1679342876606768,186357.0,226582.0,11265.0
1679342876617768,186400.0,226637.0,11275.0
1679342876626768,186464.0,226613.0,11265.0
1679342876636768,186527.0,226652.0,11283.0
1679342876646768,186564.0,226638.0,11302.0
1679342876657768,186611.0,226689.0,11310.0
1679342876666768,186677.0,226705.0,11293.0
1679342876676769,186703.0,226722.0,11306.0
1679342876686769,186770.0,226728.0,11314.0
1679342876696769,186807.0,226704.0,11318.0
1679342876706769,186857.0,226736.0,11329.0
1679342876716769,186812.0,226718.0,11325.0
1679342876726769,186831.0,226702.0,11334.0
1679342876737769,186896.0,226760.0,11340.0
1679342876746769,186905.0,226748.0,11336.0
1679342876756769,186969.0,226800.0,11351.0
1679342876766769,187054.0,226796.0,11358.0
1679342876777768,187138.0,226847.0,11371.0
1679342876786769,187220.0,226876.0,11384.0
1679342876797768,187271.0,226883.0,11394.0
1679342876806769,187346.0,226836.0,11397.0
1679342876816769,187406.0,226918.0,11414.0
1679342876826769,187447.0,226905.0,11414.0
1679342876837768,187535.0,226962.0,11426.0
1679342876846768,187604.0,226971.0,11442.0
1679342876857769,187684.0,227081.0,11449.0
1679342876866769,187782.0,227026.0,11452.0
1679342876877769,187858.0,227113.0,11465.0
1679342876886769,187928.0,227129.0,11478.0
1679342876896769,187987.0,227143.0,11452.0
1679342876906769,188075.0,227200.0,11496.0
1679342876916769,188129.0,227199.0,11504.0
1679342876926769,188169.0,227248.0,11517.0
1679342876936769,188274.0,227259.0,11519.0
1679342876946769,188321.0,227305.0,11491.0
1679342876956769,188342.0,227308.0,11499.0
1679342876966769,188401.0,227330.0,11505.0
1679342876975769,188411.0,227291.0,11532.0
1679342876986769,188414.0,227308.0,11514.0
1679342876997769,188380.0,227274.0,11533.0
1679342877005768,188263.0,227235.0,11499.0
1679342877016768,188108.0,227162.0,11497.0
1679342877026768,188051.0,227154.0,11488.0
1679342877037769,187977.0,227157.0,11480.0
1679342877047769,187953.0,227076.0,11476.0
1679342877056769,187938.0,227127.0,11484.0
1679342877066769,187874.0,227098.0,11461.0
1679342877076769,187845.0,227101.0,11453.0
1679342877087769,187821.0,227117.0,11435.0
1679342877097769,187835.0,227133.0,11466.0
1679342877106769,187840.0,227206.0,11493.0
1679342877116769,187952.0,227190.0,11475.0
1679342877127769,187985.0,227200.0,11449.0
1679342877135769,187944.0,227150.0,11439.0
1679342877146768,187879.0,227137.0,11431.0
1679342877156768,187883.0,227196.0,11476.0
1679342877166768,187857.0,227183.0,11430.0
1679342877175768,187767.0,227152.0,11423.0
1679342877186768,187654.0,227129.0,11420.0
1679342877197768,187512.0,227102.0,11387.0
1679342877206768,187358.0,227005.0,11364.0
1679342877216769,187152.0,226944.0,11370.0
1679342877226769,186974.0,226845.0,11331.0
1679342877237769,186761.0,226838.0,11311.0
1679342877246769,186599.0,226762.0,11298.0
1679342877255769,186440.0,226719.0,11278.0
1679342877266769,186360.0,226684.0,11236.0
1679342877276769,186221.0,226661.0,11200.0
1679342877286769,185991.0,226598.0,11222.0
1679342877297768,185848.0,226555.0,11206.0
1679342877306769,185747.0,226515.0,11224.0
1679342877316769,185635.0,226464.0,11132.0
1679342877326769,185516.0,226432.0,11126.0
1679342877336768,185429.0,226402.0,11130.0
1679342877346768,185307.0,226371.0,11091.0
1679342877356768,185317.0,226372.0,11097.0
1679342877366768,185357.0,226398.0,11110.0
1679342877376768,185401.0,226444.0,11103.0
1679342877386768,185474.0,226446.0,11130.0
1679342877396769,185559.0,226487.0,11149.0
1679342877406769,185631.0,226513.0,11136.0
1679342877416769,185738.0,226561.0,11148.0
1679342877426769,185835.0,226587.0,11178.0
1679342877436769,185894.0,226619.0,11211.0
1679342877446769,185956.0,226677.0,11232.0
1679342877456769,186059.0,226651.0,11233.0
1679342877466769,186205.0,226692.0,11256.0
1679342877476769,186320.0,226684.0,11266.0
1679342877486769,186381.0,226692.0,11268.0
1679342877496769,186486.0,226713.0,11285.0
1679342877506769,186503.0,226737.0,11285.0
1679342877515769,186530.0,226829.0,11298.0
1679342877526769,186543.0,226814.0,11308.0
1679342877536769,186537.0,226798.0,11303.0
1679342877547768,186568.0,226789.0,11291.0
1679342877555768,186566.0,226782.0,11289.0
1679342877566768,186598.0,226788.0,11263.0
1679342877576769,186611.0,226778.0,11299.0
1679342877587769,186647.0,226784.0,11304.0
1679342877595769,186702.0,226814.0,11313.0
1679342877606768,186728.0,226819.0,11323.0
1679342877616768,186800.0,226823.0,11336.0
1679342877626768,186919.0,226866.0,11322.0
1679342877635769,186987.0,226881.0,11340.0
1679342877646768,187061.0,226915.0,11360.0
1679342877656768,187121.0,226944.0,11367.0
1679342877667768,187128.0,226924.0,11376.0
1679342877675768,187128.0,226936.0,11375.0
1679342877686768,187165.0,226942.0,11388.0
1679342877696768,187180.0,226919.0,11389.0
1679342877706768,187219.0,226932.0,11394.0
1679342877716768,187286.0,226915.0,11400.0
1679342877726768,187309.0,226930.0,11409.0
1679342877736768,187374.0,226939.0,11412.0
1679342877746768,187424.0,226949.0,11427.0
1679342877756769,187463.0,226945.0,11426.0
1679342877766769,187553.0,226939.0,11441.0
1679342877776769,187743.0,227016.0,11456.0
1679342877786769,187788.0,227050.0,11475.0
1679342877797769,187903.0,227109.0,11488.0
1679342877805769,187989.0,227122.0,11489.0
1679342877816769,187996.0,227140.0,11500.0
1679342877826769,188130.0,227191.0,11481.0
1679342877836768,188227.0,227230.0,11499.0
1679342877846768,188346.0,227283.0,11506.0
1679342877856768,188424.0,227318.0,11570.0
1679342877866768,188558.0,227356.0,11576.0
1679342877876768,188688.0,227423.0,11570.0
1679342877886768,188786.0,227463.0,11618.0
1679342877895769,188879.0,227489.0,11625.0
1679342877906768,189036.0,227538.0,11608.0
1679342877916768,189143.0,227598.0,11630.0
1679342877926768,189234.0,227600.0,11630.0
1679342877935769,189315.0,227604.0,11666.0
1679342877946769,189381.0,227633.0,11673.0
1679342877956769,189406.0,227655.0,11655.0
1679342877966769,189465.0,227679.0,11641.0
1679342877975769,189492.0,227664.0,11687.0
1679342877986769,189498.0,227698.0,11693.0
1679342877996769,189453.0,227677.0,11689.0
1679342878006769,189442.0,227639.0,11685.0
1679342878015769,189449.0,227636.0,11689.0
1679342878026769,189420.0,227646.0,11675.0
1679342878036769,189371.0,227636.0,11669.0
1679342878047768,189348.0,227640.0,11666.0
1679342878055768,189282.0,227614.0,11660.0
1679342878066768,189239.0,227611.0,11650.0
1679342878076768,189184.0,227576.0,11648.0
1679342878087768,189129.0,227572.0,11654.0
1679342878095768,189093.0,227560.0,11639.0
1679342878106768,189051.0,227553.0,11644.0
1679342878116769,189024.0,227527.0,11587.0
1679342878126769,188970.0,227508.0,11576.0
1679342878135769,188839.0,227498.0,11612.0
1679342878146769,188864.0,227504.0,11577.0
1679342878156769,188827.0,227519.0,11592.0
1679342878166769,188813.0,227506.0,11584.0
1679342878175769,188774.0,227514.0,11587.0
1679342878186769,188727.0,227434.0,11576.0
1679342878196769,188683.0,227477.0,11586.0
1679342878206769,188673.0,227496.0,11579.0
1679342878215769,188690.0,227490.0,11568.0
1679342878226769,188597.0,227474.0,11557.0
1679342878236769,188530.0,227441.0,11569.0
1679342878246769,188495.0,227413.0,11548.0
1679342878255769,188505.0,227436.0,11556.0
1679342878265769,188487.0,227450.0,11537.0
1679342878276769,188462.0,227392.0,11546.0
1679342878287768,188399.0,227427.0,11535.0
1679342878296769,188347.0,227383.0,11529.0
1679342878306769,188289.0,227354.0,11521.0
1679342878316769,188220.0,227393.0,11502.0
1679342878326769,188156.0,227321.0,11508.0
1679342878336769,188116.0,227338.0,11463.0
1679342878345769,188086.0,227314.0,11471.0
1679342878356769,188066.0,227301.0,11482.0
1679342878366769,187970.0,227308.0,11480.0
1679342878376769,187944.0,227303.0,11467.0
1679342878385769,187860.0,227297.0,11460.0
1679342878396769,187819.0,227251.0,11455.0
1679342878407769,187717.0,227217.0,11433.0
1679342878416769,187637.0,227221.0,11425.0
1679342878425769,187549.0,227141.0,11403.0
1679342878436769,187491.0,227149.0,11366.0
1679342878446769,187423.0,227104.0,11368.0
1679342878456769,187325.0,227094.0,11406.0
1679342878465769,187276.0,227067.0,11399.0
1679342878476769,187289.0,227070.0,11366.0
1679342878486769,187229.0,227060.0,11352.0
1679342878496769,187132.0,227063.0,11376.0
1679342878506769,187108.0,227048.0,11378.0
1679342878516769,187134.0,227005.0,11359.0
1679342878526769,187103.0,227040.0,11361.0
1679342878536769,187096.0,227050.0,11352.0
1679342878546769,187113.0,227078.0,11334.0
1679342878555769,187118.0,227055.0,11353.0
1679342878566769,187144.0,227061.0,11330.0
1679342878576769,187158.0,227060.0,11344.0
1679342878586768,187167.0,227077.0,11344.0
1679342878595769,187172.0,227100.0,11371.0
1679342878607769,187159.0,227091.0,11344.0
1679342878616769,187129.0,227108.0,11349.0
1679342878626769,187072.0,227055.0,11353.0
1679342878636769,187033.0,227006.0,11349.0
1679342878645769,186961.0,226971.0,11341.0
1679342878656769,186903.0,227010.0,11334.0
1679342878666769,186963.0,227016.0,11345.0
1679342878676769,186916.0,227013.0,11330.0
1679342878686769,186846.0,226944.0,11328.0
1679342878696769,186805.0,227001.0,11325.0
1679342878708769,186770.0,226945.0,11314.0
1679342878715769,186709.0,226892.0,11329.0
1679342878726769,186654.0,226919.0,11264.0
1679342878735769,186617.0,226915.0,11265.0
1679342878746769,186571.0,226865.0,11250.0
1679342878755769,186487.0,226848.0,11249.0
1679342878766769,186497.0,226846.0,11248.0
1679342878775769,186426.0,226844.0,11253.0
1679342878786769,186368.0,226806.0,11231.0
1679342878796769,186366.0,226799.0,11236.0
1679342878806769,186321.0,226784.0,11221.0
1679342878816769,186275.0,226798.0,11218.0
1679342878826769,186259.0,226770.0,11253.0
1679342878837769,186224.0,226790.0,11253.0
1679342878845769,186212.0,226741.0,11251.0
1679342878856768,186196.0,226762.0,11234.0
1679342878866768,186181.0,226757.0,11243.0
1679342878876768,186110.0,226771.0,11241.0
1679342878885769,186093.0,226788.0,11240.0
1679342878895769,186075.0,226762.0,11242.0
1679342878906768,186094.0,226726.0,11231.0
1679342878916768,186065.0,226731.0,11213.0
1679342878925768,186013.0,226766.0,11223.0
1679342878935768,185988.0,226758.0,11222.0
1679342878946768,186010.0,226754.0,11228.0
1679342878956768,186019.0,226743.0,11212.0
1679342878965768,185976.0,226732.0,11209.0
1679342878975768,185975.0,226763.0,11198.0
1679342878986768,185983.0,226738.0,11192.0
1679342878996768,185966.0,226724.0,11220.0
1679342879005768,185940.0,226737.0,11179.0
1679342879016769,185947.0,226736.0,11169.0
1679342879026769,185929.0,226730.0,11206.0
1679342879035769,185946.0,226736.0,11199.0
1679342879046769,185930.0,226699.0,11170.0
1679342879055769,185876.0,226726.0,11214.0
1679342879066769,185841.0,226730.0,11210.0
1679342879076769,185792.0,226700.0,11203.0
1679342879086769,185797.0,226613.0,11188.0
1679342879095769,185729.0,226596.0,11179.0
1679342879106769,185661.0,226608.0,11167.0
1679342879116769,185635.0,226566.0,11173.0
1679342879126769,185588.0,226596.0,11151.0
1679342879135769,185568.0,226589.0,11159.0
1679342879146769,185506.0,226572.0,11143.0
1679342879155769,185419.0,226545.0,11146.0
1679342879166769,185427.0,226562.0,11151.0
1679342879175769,185408.0,226573.0,11155.0
1679342879186769,185436.0,226558.0,11152.0
1679342879196769,185459.0,226564.0,11127.0
1679342879206769,185451.0,226593.0,11156.0
1679342879215769,185486.0,226564.0,11154.0
1679342879226769,185490.0,226595.0,11160.0
1679342879235769,185540.0,226657.0,11153.0
1679342879246769,185570.0,226655.0,11177.0
1679342879255769,185563.0,226670.0,11165.0
1679342879266769,185626.0,226648.0,11169.0
1679342879275769,185640.0,226619.0,11170.0
1679342879286769,185644.0,226630.0,11161.0
1679342879296769,185636.0,226668.0,11161.0
1679342879306769,185613.0,226649.0,11167.0
1679342879315769,185608.0,226633.0,11165.0
1679342879326769,185607.0,226661.0,11166.0
1679342879336768,185578.0,226643.0,11160.0
1679342879346768,185571.0,226638.0,11164.0
1679342879355769,185556.0,226673.0,11164.0
1679342879366768,185555.0,226664.0,11160.0
1679342879376769,185545.0,226650.0,11151.0
1679342879386769,185534.0,226655.0,11155.0
1679342879395769,185507.0,226589.0,11164.0
1679342879406769,185504.0,226605.0,11156.0
1679342879416769,185507.0,226557.0,11153.0
1679342879425769,185495.0,226645.0,11144.0
1679342879435769,185457.0,226618.0,11142.0
1679342879446769,185473.0,226595.0,11150.0
1679342879456769,185467.0,226598.0,11149.0
1679342879466769,185463.0,226590.0,11156.0
1679342879475769,185480.0,226616.0,11155.0
1679342879486769,185468.0,226609.0,11150.0
1679342879496769,185466.0,226604.0,11138.0
1679342879506769,185465.0,226600.0,11143.0
1679342879515769,185436.0,226622.0,11142.0
1679342879526769,185405.0,226612.0,11105.0
1679342879536769,185397.0,226564.0,11143.0
1679342879546769,185395.0,226620.0,11143.0
1679342879555769,185389.0,226619.0,11131.0
1679342879566769,185391.0,226604.0,11128.0
1679342879576769,185381.0,226545.0,11124.0
1679342879586768,185386.0,226588.0,11136.0
1679342879595769,185396.0,226602.0,11139.0
1679342879606768,185412.0,226575.0,11151.0
1679342879616768,185437.0,226575.0,11147.0
1679342879626768,185427.0,226631.0,11102.0
1679342879635769,185428.0,226616.0,11133.0
1679342879646768,185425.0,226636.0,11147.0
1679342879656768,185413.0,226573.0,11129.0
1679342879666768,185366.0,226617.0,11127.0
1679342879675768,185354.0,226609.0,11133.0
1679342879686768,185325.0,226525.0,11136.0
1679342879695768,185282.0,226474.0,11118.0
1679342879706768,185226.0,226482.0,11118.0
1679342879715768,185207.0,226491.0,11104.0
1679342879725768,185157.0,226518.0,11062.0
1679342879735769,185039.0,226432.0,11102.0
1679342879746769,184979.0,226398.0,11088.0
1679342879755769,184867.0,226275.0,11071.0
1679342879766769,184776.0,226206.0,11050.0
1679342879775769,184673.0,226158.0,11032.0
1679342879786769,184634.0,226159.0,11037.0
1679342879796769,184620.0,226180.0,11039.0
1679342879805769,184592.0,226132.0,11012.0
1679342879816769,184513.0,226079.0,11009.0
1679342879826769,184471.0,226071.0,11008.0
1679342879836768,184411.0,226025.0,11009.0
1679342879845769,184361.0,225970.0,11003.0
1679342879855769,184262.0,225926.0,10994.0
1679342879866768,184169.0,225851.0,10980.0
1679342879876768,184079.0,225792.0,10972.0
1679342879885769,183976.0,225756.0,10951.0
1679342879895769,183894.0,225702.0,10945.0
1679342879906768,183817.0,225654.0,10946.0
1679342879917769,183754.0,225620.0,10918.0
1679342879925769,183697.0,225546.0,10914.0
1679342879935769,183673.0,225538.0,10932.0
1679342879946769,183646.0,225554.0,10911.0
1679342879956769,183621.0,225518.0,10906.0
1679342879965769,183610.0,225507.0,10915.0
1679342879975769,183603.0,225545.0,10905.0
1679342879985769,183623.0,225577.0,10899.0
1679342879996769,183581.0,225538.0,10893.0
1679342880005769,183503.0,225480.0,10871.0
1679342880017769,183426.0,225463.0,10849.0
1679342880026769,183337.0,225403.0,10845.0
1679342880036769,183212.0,225332.0,10862.0
1679342880046769,183133.0,225258.0,10863.0
1679342880055769,183079.0,225219.0,10840.0
1679342880066769,183036.0,225209.0,10823.0
1679342880076769,182991.0,225220.0,10827.0
1679342880086769,182972.0,225222.0,10836.0
1679342880095769,182978.0,225221.0,10825.0
1679342880105769,182973.0,225234.0,10834.0
1679342880116769,183021.0,225276.0,10831.0
1679342880126769,183070.0,225310.0,10836.0
1679342880135769,183126.0,225353.0,10854.0
1679342880146769,183156.0,225373.0,10860.0
1679342880156769,183209.0,225361.0,10856.0
1679342880165769,183222.0,225434.0,10832.0
1679342880175769,183288.0,225492.0,10833.0
1679342880185769,183313.0,225479.0,10845.0
1679342880196769,183326.0,225503.0,10872.0
1679342880205769,183353.0,225518.0,10850.0
1679342880215769,183384.0,225554.0,10845.0
1679342880225769,183374.0,225556.0,10886.0
1679342880235769,183426.0,225546.0,10886.0
1679342880246769,183443.0,225566.0,10890.0
1679342880255769,183434.0,225575.0,10893.0
1679342880266769,183438.0,225585.0,10891.0
1679342880275769,183434.0,225546.0,10888.0
1679342880285769,183422.0,225570.0,10900.0
1679342880296769,183414.0,225591.0,10871.0
1679342880306769,183388.0,225556.0,10894.0
1679342880315769,183370.0,225538.0,10876.0
1679342880326769,183344.0,225512.0,10886.0
1679342880336768,183352.0,225532.0,10879.0
1679342880345769,183297.0,225498.0,10889.0
1679342880355769,183327.0,225511.0,10864.0
1679342880365769,183345.0,225527.0,10855.0
1679342880376768,183317.0,225532.0,10889.0
1679342880385769,183350.0,225542.0,10885.0
1679342880395769,183399.0,225559.0,10878.0
1679342880405768,183371.0,225602.0,10901.0
1679342880416768,183406.0,225571.0,10895.0
1679342880425768,183392.0,225553.0,10886.0
1679342880435768,183445.0,225575.0,10886.0
1679342880446768,183455.0,225573.0,10897.0
1679342880456769,183470.0,225578.0,10893.0
1679342880464769,183497.0,225591.0,10903.0
1679342880475768,183550.0,225607.0,10899.0
1679342880485768,183608.0,225621.0,10901.0
1679342880496768,183656.0,225679.0,10894.0
1679342880505768,183740.0,225721.0,10914.0
1679342880515768,183840.0,225744.0,10898.0
1679342880525768,183851.0,225789.0,10956.0
1679342880536768,183985.0,225833.0,10946.0
1679342880546768,184063.0,225875.0,10963.0
1679342880555768,184151.0,225937.0,10984.0
1679342880566768,184245.0,225982.0,10998.0
1679342880576768,184317.0,226028.0,11013.0
1679342880586768,184407.0,226079.0,11028.0
1679342880595768,184503.0,226134.0,11034.0
1679342880606768,184582.0,226174.0,11050.0
1679342880615768,184666.0,226217.0,11058.0
1679342880626768,184721.0,226246.0,11070.0
1679342880635769,184757.0,226297.0,11070.0
1679342880646769,184819.0,226308.0,11075.0
1679342880655769,184873.0,226255.0,11074.0
1679342880665769,184881.0,226316.0,11088.0
1679342880675769,184949.0,226345.0,11069.0
1679342880686769,184966.0,226342.0,11076.0
1679342880696769,185002.0,226357.0,11098.0
1679342880705769,184984.0,226394.0,11110.0
1679342880715769,185064.0,226415.0,11099.0
1679342880725769,185078.0,226420.0,11101.0
1679342880735769,185141.0,226377.0,11104.0
1679342880745769,185165.0,226443.0,11099.0
1679342880755769,185233.0,226480.0,11098.0
1679342880765769,185264.0,226452.0,11122.0
1679342880775769,185289.0,226452.0,11132.0
1679342880786769,185334.0,226475.0,11151.0
1679342880796769,185387.0,226540.0,11156.0
1679342880805769,185443.0,226523.0,11164.0
1679342880815769,185495.0,226544.0,11173.0
1679342880826769,185556.0,226577.0,11172.0
1679342880836769,185627.0,226625.0,11182.0
1679342880844769,185653.0,226643.0,11191.0
1679342880855769,185699.0,226624.0,11178.0
1679342880866768,185763.0,226657.0,11213.0
1679342880876768,185803.0,226671.0,11214.0
1679342880885769,185822.0,226680.0,11212.0
1679342880895769,185865.0,226728.0,11205.0
1679342880905768,185931.0,226735.0,11221.0
1679342880916768,185964.0,226756.0,11232.0
1679342880924768,185996.0,226753.0,11222.0
1679342880935768,186033.0,226779.0,11210.0
1679342880945768,186063.0,226780.0,11211.0
1679342880956768,186099.0,226771.0,11224.0
1679342880964768,186108.0,226744.0,11226.0
1679342880975768,186064.0,226781.0,11257.0
1679342880985768,186080.0,226768.0,11244.0
1679342880996769,186139.0,226774.0,11225.0
1679342881005769,186075.0,226778.0,11258.0
1679342881015769,186141.0,226812.0,11262.0
1679342881025769,186142.0,226787.0,11253.0
1679342881036769,186175.0,226789.0,11223.0
1679342881045769,186186.0,226804.0,11257.0
1679342881055769,186197.0,226797.0,11261.0
1679342881065769,186227.0,226760.0,11267.0
1679342881076769,186247.0,226758.0,11273.0
1679342881086769,186264.0,226727.0,11278.0
1679342881094769,186307.0,226795.0,11266.0
1679342881105769,186339.0,226779.0,11268.0
1679342881115769,186339.0,226789.0,11284.0
1679342881126768,186372.0,226797.0,11257.0
1679342881135769,186363.0,226780.0,11267.0
1679342881145769,186354.0,226709.0,11290.0
1679342881156768,186347.0,226693.0,11286.0
1679342881165768,186346.0,226701.0,11285.0
1679342881175769,186363.0,226709.0,11294.0
1679342881185769,186395.0,226705.0,11290.0
1679342881196769,186398.0,226721.0,11297.0
1679342881205769,186427.0,226713.0,11300.0
1679342881215769,186463.0,226713.0,11308.0
1679342881226769,186516.0,226747.0,11318.0
1679342881236769,186538.0,226759.0,11310.0
1679342881245769,186567.0,226777.0,11320.0
1679342881255769,186597.0,226792.0,11333.0
1679342881265769,186647.0,226777.0,11332.0
1679342881276769,186679.0,226826.0,11335.0
1679342881285769,186705.0,226766.0,11334.0
1679342881296769,186756.0,226824.0,11346.0
1679342881305769,186812.0,226792.0,11339.0
1679342881315769,186836.0,226839.0,11359.0
1679342881326769,186863.0,226881.0,11359.0
1679342881336768,186899.0,226873.0,11369.0
1679342881345769,186925.0,226945.0,11359.0
1679342881355769,186906.0,226913.0,11369.0
1679342881365769,186867.0,226938.0,11380.0
1679342881376769,186934.0,226932.0,11376.0
1679342881385769,186935.0,226931.0,11362.0
1679342881395769,186924.0,226904.0,11373.0
1679342881405769,186925.0,226871.0,11371.0
1679342881415769,186918.0,226847.0,11377.0
1679342881427769,186911.0,226897.0,11375.0
1679342881435769,186947.0,226904.0,11374.0
1679342881445769,186978.0,226897.0,11385.0
1679342881456769,186974.0,226878.0,11380.0
1679342881465769,186975.0,226896.0,11381.0
1679342881475769,186993.0,226865.0,11384.0
1679342881485769,187022.0,226875.0,11390.0
1679342881496769,187050.0,226870.0,11394.0
1679342881505769,187094.0,226883.0,11387.0
1679342881515769,187144.0,226939.0,11404.0
1679342881527769,187182.0,226920.0,11418.0
1679342881535769,187229.0,226948.0,11430.0
1679342881546769,187280.0,226971.0,11417.0
1679342881554768,187298.0,226998.0,11399.0
1679342881565768,187356.0,227016.0,11399.0
1679342881575768,187393.0,227029.0,11434.0
1679342881586768,187462.0,227070.0,11457.0
1679342881595768,187518.0,227082.0,11442.0
1679342881605768,187584.0,227064.0,11492.0
1679342881615768,187686.0,227123.0,11492.0
1679342881628768,187847.0,227185.0,11513.0
1679342881634768,187970.0,227162.0,11526.0
1679342881645768,188007.0,227221.0,11530.0
1679342881655768,188125.0,227254.0,11551.0
1679342881666768,188229.0,227279.0,11564.0
1679342881674768,188276.0,227296.0,11574.0
1679342881685768,188387.0,227310.0,11587.0
1679342881695768,188472.0,227349.0,11597.0
1679342881706768,188509.0,227349.0,11605.0
1679342881714769,188538.0,227375.0,11608.0
1679342881725769,188615.0,227405.0,11596.0
1679342881735769,188660.0,227391.0,11617.0
1679342881746769,188655.0,227446.0,11618.0
1679342881755769,188707.0,227421.0,11622.0
1679342881765769,188725.0,227430.0,11626.0
1679342881775769,188734.0,227441.0,11614.0
1679342881786769,188730.0,227373.0,11623.0
1679342881795769,188688.0,227384.0,11616.0
1679342881805769,188676.0,227398.0,11607.0
1679342881815769,188654.0,227397.0,11610.0
1679342881825769,188606.0,227414.0,11612.0
1679342881835769,188576.0,227387.0,11603.0
1679342881845769,188513.0,227388.0,11581.0
1679342881855769,188445.0,227342.0,11574.0
1679342881865769,188326.0,227289.0,11578.0
1679342881875769,188240.0,227248.0,11553.0
1679342881885769,188133.0,227189.0,11531.0
1679342881895769,188022.0,227155.0,11522.0
1679342881905769,187943.0,227136.0,11493.0
1679342881915769,187862.0,227055.0,11491.0
1679342881925769,187760.0,226988.0,11493.0
1679342881935769,187724.0,226958.0,11492.0
1679342881945769,187670.0,227057.0,11472.0
1679342881955769,187594.0,227019.0,11483.0
1679342881965769,187594.0,226999.0,11473.0
1679342881975769,187535.0,226996.0,11463.0
1679342881985769,187502.0,226998.0,11466.0
1679342881995769,187488.0,226974.0,11429.0
1679342882005769,187448.0,226964.0,11422.0
1679342882015769,187429.0,226968.0,11435.0
1679342882025769,187385.0,226975.0,11425.0
1679342882035769,187367.0,226964.0,11437.0
1679342882046769,187325.0,226904.0,11434.0
1679342882055769,187301.0,226921.0,11408.0
1679342882065769,187261.0,226945.0,11415.0
1679342882075769,187221.0,226962.0,11420.0
1679342882085769,187186.0,226929.0,11419.0
1679342882095769,187181.0,226948.0,11374.0
1679342882105769,187145.0,226951.0,11396.0
1679342882115769,187069.0,226949.0,11403.0
1679342882125769,187019.0,226955.0,11404.0
1679342882135769,187033.0,226938.0,11364.0
1679342882145769,186956.0,226959.0,11380.0
1679342882155769,186959.0,226949.0,11374.0
1679342882165769,186901.0,226939.0,11376.0
1679342882175769,186879.0,226895.0,11361.0
1679342882185769,186847.0,226924.0,11358.0
1679342882195769,186829.0,226933.0,11360.0
1679342882205769,186795.0,226885.0,11347.0
1679342882215769,186758.0,226893.0,11342.0
1679342882225769,186748.0,226923.0,11359.0
1679342882235769,186754.0,226892.0,11342.0
1679342882245769,186734.0,226933.0,11350.0
1679342882255769,186671.0,226929.0,11361.0
1679342882264769,186647.0,226920.0,11348.0
1679342882275769,186688.0,226942.0,11336.0
1679342882285769,186687.0,226934.0,11343.0
1679342882296769,186679.0,226953.0,11349.0
1679342882304768,186662.0,226956.0,11327.0
1679342882314768,186646.0,226957.0,11337.0
1679342882325768,186661.0,226919.0,11322.0
1679342882336768,186640.0,226935.0,11327.0
1679342882344768,186615.0,226865.0,11322.0
1679342882355768,186598.0,226875.0,11321.0
1679342882365768,186573.0,226864.0,11310.0
1679342882376768,186521.0,226898.0,11319.0
1679342882384768,186520.0,226884.0,11314.0
1679342882395768,186495.0,226861.0,11325.0
1679342882405768,186472.0,226855.0,11307.0
1679342882416768,186467.0,226861.0,11308.0
1679342882424768,186441.0,226828.0,11305.0
1679342882435769,186416.0,226832.0,11299.0
1679342882445769,186408.0,226937.0,11292.0
1679342882456769,186387.0,226853.0,11296.0
1679342882464769,186376.0,226815.0,11291.0
1679342882475768,186339.0,226853.0,11291.0
1679342882485768,186311.0,226841.0,11283.0
1679342882495768,186260.0,226828.0,11284.0
1679342882505768,186224.0,226816.0,11284.0
1679342882514768,186205.0,226805.0,11269.0
1679342882525768,186185.0,226814.0,11229.0
1679342882536768,186123.0,226814.0,11267.0
1679342882545768,186110.0,226815.0,11255.0
1679342882555768,186106.0,226777.0,11264.0
1679342882565768,186098.0,226773.0,11257.0
1679342882575768,186064.0,226745.0,11260.0
1679342882585768,186004.0,226750.0,11244.0
1679342882595768,185973.0,226709.0,11246.0
1679342882605768,185917.0,226658.0,11234.0
1679342882616769,185852.0,226621.0,11237.0
1679342882625769,185781.0,226617.0,11214.0
1679342882636769,185695.0,226593.0,11171.0
1679342882645769,185611.0,226538.0,11188.0
1679342882654769,185483.0,226502.0,11167.0
1679342882665769,185419.0,226473.0,11168.0
1679342882674769,185330.0,226451.0,11158.0
1679342882685769,185230.0,226445.0,11160.0
1679342882695769,185162.0,226421.0,11149.0
1679342882705769,185149.0,226393.0,11140.0
1679342882714769,185128.0,226411.0,11129.0
1679342882725769,185087.0,226399.0,11145.0
1679342882735769,185045.0,226388.0,11128.0
1679342882745769,185072.0,226394.0,11126.0
1679342882755769,185049.0,226361.0,11086.0
1679342882765769,185043.0,226381.0,11097.0
1679342882774769,185019.0,226344.0,11101.0
1679342882785769,185001.0,226362.0,11101.0
1679342882796769,184960.0,226376.0,11110.0
1679342882805769,184940.0,226362.0,11087.0
1679342882814769,184872.0,226328.0,11077.0
1679342882825769,184799.0,226273.0,11058.0
1679342882835769,184612.0,226179.0,11071.0
1679342882844769,184447.0,226081.0,11050.0
1679342882854769,184293.0,225968.0,11026.0
1679342882865769,184038.0,225829.0,10986.0
1679342882875769,183763.0,225643.0,10941.0
1679342882885769,183455.0,225463.0,10922.0
1679342882894769,182963.0,225180.0,10865.0
1679342882905769,182619.0,224936.0,10817.0
1679342882915769,182190.0,224616.0,10758.0
1679342882924769,181709.0,224278.0,10708.0
1679342882934769,181187.0,223915.0,10636.0
1679342882945769,180495.0,223384.0,10526.0
1679342882955769,179713.0,222919.0,10444.0
1679342882964769,179630.0,222558.0,10375.0
1679342882974769,179228.0,222291.0,10306.0
1679342882985769,178861.0,222007.0,10261.0
1679342882995769,178466.0,221784.0,10251.0
1679342883005769,178168.0,221594.0,10225.0
1679342883014769,177946.0,221419.0,10193.0
1679342883025769,177723.0,221287.0,10158.0
1679342883035769,177541.0,221164.0,10145.0
1679342883045769,177361.0,221016.0,10142.0
1679342883054769,177289.0,221026.0,10128.0
1679342883065769,177243.0,221001.0,10120.0
1679342883075769,177204.0,220962.0,10122.0
1679342883085769,177178.0,220973.0,10123.0
1679342883094769,177141.0,220953.0,10108.0
1679342883105769,177073.0,220905.0,10117.0
1679342883115769,177028.0,220877.0,10107.0
1679342883125769,176964.0,220840.0,10109.0
1679342883134769,176906.0,220796.0,10103.0
1679342883145769,176889.0,220818.0,10099.0
1679342883155769,176835.0,220758.0,10098.0
1679342883165769,176836.0,220775.0,10090.0
1679342883174769,176835.0,220739.0,10087.0
1679342883185769,176835.0,220743.0,10092.0
1679342883195769,176823.0,220700.0,10088.0
1679342883205769,176805.0,220661.0,10082.0
1679342883214769,176789.0,220666.0,10088.0
1679342883225769,176845.0,220721.0,10108.0
1679342883235769,176854.0,220720.0,10099.0
1679342883245769,176849.0,220704.0,10094.0
1679342883255769,176847.0,220773.0,10104.0
1679342883265769,176883.0,220791.0,10113.0
1679342883275769,176874.0,220771.0,10099.0
1679342883284769,176860.0,220782.0,10077.0
1679342883295769,176867.0,220770.0,10065.0
1679342883304769,176860.0,220736.0,10084.0
1679342883315769,176821.0,220761.0,10065.0
1679342883324769,176789.0,220723.0,10066.0
1679342883335769,176728.0,220683.0,10046.0
1679342883344769,176645.0,220674.0,10055.0
1679342883355769,176612.0,220612.0,10024.0
1679342883364769,176580.0,220630.0,10042.0
1679342883375769,176499.0,220610.0,10070.0
1679342883384769,176492.0,220620.0,10070.0
1679342883395769,176509.0,220642.0,10063.0
1679342883405769,176558.0,220574.0,10068.0
1679342883415769,176574.0,220645.0,10070.0
1679342883424769,176621.0,220710.0,10078.0
1679342883435769,176675.0,220675.0,10083.0
1679342883444769,176731.0,220724.0,10074.0
1679342883455769,176799.0,220818.0,10092.0
1679342883464769,176820.0,220899.0,10114.0
1679342883475769,176871.0,220946.0,10108.0
1679342883484769,176934.0,220954.0,10120.0
1679342883495769,177042.0,221041.0,10122.0
1679342883505769,177110.0,221114.0,10125.0
1679342883515769,177177.0,221162.0,10150.0
1679342883524769,177246.0,221188.0,10154.0
1679342883535769,177262.0,221133.0,10148.0
1679342883545769,177290.0,221150.0,10156.0
1679342883554769,177352.0,221247.0,10162.0
1679342883564769,177339.0,221272.0,10160.0
1679342883575769,177322.0,221274.0,10168.0
1679342883585769,177334.0,221251.0,10164.0
1679342883594769,177328.0,221250.0,10154.0
1679342883604769,177297.0,221246.0,10148.0
1679342883615769,177288.0,221261.0,10155.0
1679342883625769,177245.0,221230.0,10162.0
1679342883634769,177230.0,221212.0,10148.0
1679342883645769,177188.0,221207.0,10147.0
1679342883655768,177218.0,221260.0,10150.0
1679342883665768,177265.0,221247.0,10155.0
1679342883674769,177269.0,221262.0,10154.0
1679342883685768,177283.0,221251.0,10165.0
1679342883695769,177334.0,221301.0,10163.0
1679342883704769,177364.0,221322.0,10168.0
1679342883714769,177378.0,221326.0,10154.0
1679342883724769,177378.0,221351.0,10167.0
1679342883735769,177388.0,221331.0,10157.0
1679342883746769,177349.0,221320.0,10166.0
1679342883755769,177317.0,221291.0,10166.0
1679342883764769,177277.0,221290.0,10175.0
1679342883775769,177250.0,221292.0,10167.0
1679342883784769,177266.0,221305.0,10163.0
1679342883795769,177287.0,221291.0,10157.0
1679342883804769,177273.0,221281.0,10167.0
1679342883815769,177308.0,221275.0,10163.0
1679342883824769,177295.0,221284.0,10169.0
1679342883835769,177271.0,221248.0,10157.0
1679342883844769,177200.0,221212.0,10159.0
1679342883854769,177216.0,221202.0,10154.0
1679342883864769,177194.0,221155.0,10116.0
1679342883875769,177184.0,221136.0,10125.0
1679342883884769,177144.0,221108.0,10134.0
1679342883894769,177125.0,221106.0,10123.0
1679342883904769,177115.0,221120.0,10101.0
1679342883915769,177148.0,221100.0,10105.0
1679342883924769,177135.0,221111.0,10118.0
1679342883934769,177150.0,221115.0,10134.0
1679342883944769,177127.0,221098.0,10135.0
1679342883955769,177181.0,221136.0,10097.0
1679342883964769,177198.0,221160.0,10159.0
1679342883974769,177244.0,221177.0,10153.0
1679342883985769,177280.0,221227.0,10156.0
1679342883995769,177312.0,221251.0,10164.0
1679342884005769,177340.0,221262.0,10155.0
1679342884014769,177367.0,221279.0,10180.0
1679342884024769,177373.0,221285.0,10171.0
1679342884035769,177391.0,221294.0,10175.0
1679342884045769,177375.0,221294.0,10175.0
1679342884054769,177385.0,221307.0,10173.0
1679342884065769,177374.0,221317.0,10179.0
1679342884075769,177403.0,221318.0,10175.0
1679342884084769,177456.0,221330.0,10176.0
1679342884094769,177508.0,221413.0,10169.0
1679342884105769,177581.0,221473.0,10203.0
1679342884115769,177644.0,221539.0,10206.0
1679342884124769,177758.0,221607.0,10196.0
1679342884134769,177842.0,221674.0,10214.0
1679342884144769,177939.0,221756.0,10246.0
1679342884154769,178061.0,221828.0,10250.0
1679342884165768,178169.0,221926.0,10278.0
1679342884174769,178317.0,221994.0,10292.0
1679342884185768,178428.0,222069.0,10305.0
1679342884194769,178539.0,222149.0,10308.0
1679342884205768,178667.0,222242.0,10330.0
1679342884214769,178818.0,222399.0,10351.0
1679342884225768,178958.0,222462.0,10373.0
1679342884235769,179156.0,222583.0,10385.0
1679342884244769,179298.0,222762.0,10412.0
1679342884255769,179526.0,222877.0,10388.0
1679342884265769,179694.0,222995.0,10453.0
1679342884274769,179939.0,223152.0,10474.0
1679342884285769,180141.0,223283.0,10512.0
1679342884295769,180388.0,223459.0,10533.0
1679342884304769,180685.0,223645.0,10573.0
1679342884314769,180881.0,223749.0,10589.0
1679342884325769,180984.0,223873.0,10606.0
1679342884335769,181212.0,224041.0,10633.0
1679342884344769,181365.0,224137.0,10646.0
1679342884354769,181456.0,224228.0,10657.0
1679342884365769,181548.0,224302.0,10669.0
1679342884375769,181645.0,224363.0,10685.0
1679342884384769,181704.0,224424.0,10676.0
1679342884394769,181777.0,224426.0,10684.0
1679342884405768,181858.0,224490.0,10711.0
1679342884415769,181936.0,224556.0,10713.0
1679342884424769,181995.0,224552.0,10716.0
1679342884434769,182072.0,224635.0,10732.0
1679342884445769,182162.0,224698.0,10748.0
1679342884454769,182243.0,224719.0,10751.0
1679342884464769,182342.0,224820.0,10771.0
1679342884474769,182424.0,224860.0,10768.0
1679342884484769,182477.0,224905.0,10746.0
1679342884495769,182564.0,224923.0,10739.0
1679342884505769,182611.0,224939.0,10783.0
1679342884514769,182608.0,224953.0,10781.0
1679342884524769,182636.0,224961.0,10766.0
1679342884535769,182682.0,224966.0,10775.0
1679342884544769,182638.0,224973.0,10801.0
1679342884554769,182675.0,225022.0,10763.0
1679342884565769,182656.0,224979.0,10812.0
1679342884574769,182637.0,224928.0,10803.0
1679342884585769,182629.0,224919.0,10803.0
1679342884594769,182605.0,224920.0,10790.0
1679342884605769,182598.0,224922.0,10796.0
1679342884614769,182598.0,224945.0,10801.0
1679342884625769,182557.0,224937.0,10795.0
1679342884634769,182550.0,224927.0,10793.0
1679342884645769,182518.0,224916.0,10796.0
1679342884654769,182496.0,224877.0,10791.0
1679342884665768,182485.0,224898.0,10772.0
1679342884674769,182460.0,224885.0,10775.0
1679342884685768,182422.0,224884.0,10779.0
1679342884694769,182398.0,224858.0,10779.0
1679342884705768,182400.0,224828.0,10780.0
1679342884714769,182381.0,224814.0,10751.0
1679342884724769,182350.0,224801.0,10772.0
1679342884734768,182316.0,224773.0,10769.0
1679342884745768,182283.0,224816.0,10761.0
1679342884755768,182290.0,224801.0,10754.0
1679342884764768,182309.0,224846.0,10751.0
1679342884774769,182322.0,224846.0,10753.0
1679342884785769,182368.0,224872.0,10768.0
1679342884795769,182419.0,224904.0,10776.0
1679342884804769,182472.0,224940.0,10788.0
1679342884814769,182513.0,224911.0,10802.0
1679342884825769,182580.0,224971.0,10800.0
1679342884835769,182620.0,225010.0,10796.0
1679342884844769,182675.0,225009.0,10811.0
1679342884854769,182704.0,225038.0,10809.0
1679342884865769,182743.0,225073.0,10823.0
1679342884875769,182796.0,225097.0,10827.0
1679342884884769,182852.0,225112.0,10831.0
1679342884894769,182870.0,225135.0,10844.0
1679342884904769,182863.0,225164.0,10839.0
1679342884915768,182937.0,225176.0,10834.0
1679342884924769,182978.0,225203.0,10829.0
1679342884934769,182978.0,225246.0,10853.0
1679342884944769,183007.0,225231.0,10859.0
1679342884955769,183076.0,225228.0,10832.0
1679342884964769,183109.0,225261.0,10829.0
1679342884974769,183072.0,225256.0,10868.0
1679342884984769,183064.0,225278.0,10867.0
1679342884995769,183142.0,225278.0,10855.0
1679342885004769,183156.0,225274.0,10863.0
1679342885014769,183148.0,225301.0,10886.0
1679342885024769,183160.0,225249.0,10864.0
1679342885035769,183170.0,225302.0,10872.0
1679342885044769,183171.0,225290.0,10883.0
1679342885054769,183166.0,225292.0,10871.0
1679342885064769,183150.0,225297.0,10856.0
1679342885074769,183163.0,225278.0,10839.0
1679342885084769,183130.0,225237.0,10853.0
1679342885094769,183115.0,225245.0,10858.0
1679342885104769,183097.0,225243.0,10856.0
1679342885114769,183083.0,225239.0,10825.0
1679342885124769,183046.0,225247.0,10830.0
1679342885134769,183060.0,225226.0,10824.0
1679342885144769,183038.0,225210.0,10854.0
1679342885155769,182984.0,225213.0,10834.0
1679342885165769,182984.0,225219.0,10850.0
1679342885174769,183019.0,225216.0,10858.0
1679342885184769,183023.0,225228.0,10855.0
1679342885195769,183013.0,225220.0,10862.0
1679342885204769,183000.0,225265.0,10855.0
1679342885214769,183009.0,225257.0,10871.0
1679342885224769,182996.0,225242.0,10858.0
1679342885234769,183030.0,225245.0,10861.0
1679342885244769,183027.0,225267.0,10867.0
1679342885255769,183011.0,225247.0,10868.0
1679342885264769,183075.0,225258.0,10860.0
1679342885274769,183090.0,225255.0,10837.0
1679342885284769,183086.0,225244.0,10855.0
1679342885295769,183115.0,225232.0,10825.0
1679342885303768,183140.0,225241.0,10854.0
1679342885314769,183146.0,225245.0,10875.0
1679342885324769,183159.0,225248.0,10880.0
1679342885335769,183194.0,225278.0,10844.0
1679342885343768,183213.0,225285.0,10874.0
1679342885354768,183271.0,225329.0,10853.0
1679342885365768,183233.0,225288.0,10867.0
1679342885375768,183260.0,225278.0,10889.0
1679342885383768,183209.0,225263.0,10879.0
1679342885394768,183232.0,225276.0,10849.0
1679342885404768,183184.0,225246.0,10882.0
1679342885415768,183213.0,225263.0,10891.0
1679342885423768,183199.0,225264.0,10869.0
1679342885434768,183315.0,225330.0,10864.0
1679342885444768,183361.0,225382.0,10907.0
1679342885455768,183389.0,225385.0,10926.0
1679342885463768,183459.0,225417.0,10906.0
1679342885474768,183596.0,225449.0,10914.0
1679342885485767,183624.0,225464.0,10922.0
1679342885495769,183696.0,225501.0,10937.0
1679342885504769,183759.0,225530.0,10936.0
1679342885514769,183756.0,225565.0,10952.0
1679342885524769,183791.0,225601.0,10969.0
1679342885535769,183891.0,225677.0,10969.0
1679342885544769,183904.0,225677.0,10971.0
1679342885554769,183941.0,225672.0,10978.0
1679342885564769,183991.0,225696.0,10967.0
1679342885574769,183979.0,225670.0,10957.0
1679342885584769,183956.0,225666.0,10932.0
1679342885594769,183895.0,225662.0,10969.0
1679342885604769,183854.0,225633.0,10965.0
1679342885614769,183835.0,225623.0,10952.0
1679342885624769,183777.0,225609.0,10930.0
1679342885634769,183781.0,225606.0,10922.0
1679342885644769,183764.0,225586.0,10928.0
1679342885654769,183742.0,225588.0,10923.0
1679342885665768,183725.0,225577.0,10934.0
1679342885674769,183694.0,225540.0,10933.0
1679342885684769,183680.0,225529.0,10940.0
1679342885694769,183671.0,225581.0,10939.0
1679342885704769,183645.0,225559.0,10939.0
1679342885714769,183624.0,225550.0,10916.0
1679342885724769,183616.0,225573.0,10902.0
1679342885734769,183661.0,225603.0,10895.0
1679342885744769,183676.0,225593.0,10943.0
1679342885755769,183705.0,225623.0,10943.0
1679342885764769,183729.0,225651.0,10952.0
1679342885774769,183705.0,225651.0,10962.0
1679342885784769,183746.0,225656.0,10938.0
1679342885795769,183795.0,225679.0,10910.0
1679342885803768,183738.0,225704.0,10946.0
1679342885814768,183729.0,225679.0,10942.0
1679342885824768,183719.0,225666.0,10952.0
1679342885835768,183759.0,225671.0,10932.0
1679342885843768,183690.0,225672.0,10942.0
1679342885854769,183662.0,225664.0,10947.0
1679342885864769,183645.0,225612.0,10940.0
1679342885875769,183651.0,225633.0,10942.0
1679342885883768,183644.0,225629.0,10921.0
1679342885894768,183580.0,225644.0,10926.0
1679342885904768,183553.0,225603.0,10924.0
1679342885915768,183567.0,225603.0,10920.0
1679342885923768,183551.0,225536.0,10913.0
1679342885934768,183539.0,225579.0,10921.0
1679342885944768,183522.0,225585.0,10921.0
1679342885955768,183511.0,225549.0,10903.0
1679342885963768,183495.0,225511.0,10904.0
1679342885974768,183461.0,225623.0,10917.0
1679342885984768,183448.0,225569.0,10907.0
1679342885994768,183457.0,225573.0,10906.0
1679342886004768,183430.0,225562.0,10897.0
1679342886014768,183447.0,225562.0,10891.0
1679342886024768,183445.0,225561.0,10878.0
1679342886035769,183431.0,225552.0,10871.0
1679342886044769,183349.0,225515.0,10903.0
1679342886054769,183345.0,225526.0,10884.0
1679342886064769,183288.0,225495.0,10879.0
1679342886074769,183259.0,225473.0,10848.0
1679342886084769,183242.0,225444.0,10839.0
1679342886094769,183223.0,225430.0,10832.0
1679342886104769,183179.0,225448.0,10863.0
1679342886114769,183164.0,225435.0,10865.0
1679342886124769,183133.0,225431.0,10865.0
1679342886134769,183110.0,225443.0,10859.0
1679342886144769,183072.0,225412.0,10862.0
1679342886154769,183087.0,225404.0,10861.0
1679342886164769,183051.0,225402.0,10868.0
1679342886174769,183084.0,225432.0,10839.0
1679342886184769,183074.0,225392.0,10846.0
1679342886194769,183036.0,225397.0,10859.0
1679342886204769,183125.0,225452.0,10877.0
1679342886214769,183175.0,225461.0,10840.0
1679342886224769,183135.0,225448.0,10867.0
1679342886234769,183184.0,225484.0,10851.0
1679342886244769,183158.0,225474.0,10858.0
1679342886255769,183141.0,225472.0,10847.0
1679342886263769,183092.0,225456.0,10852.0
1679342886274768,183064.0,225476.0,10818.0
1679342886284768,183066.0,225379.0,10853.0
1679342886295768,183055.0,225401.0,10839.0
1679342886304768,183018.0,225396.0,10838.0
1679342886314768,182965.0,225385.0,10842.0
1679342886324768,182930.0,225359.0,10836.0
1679342886335768,182913.0,225334.0,10818.0
1679342886344768,182887.0,225356.0,10821.0
1679342886354768,182881.0,225346.0,10829.0
1679342886364768,182876.0,225329.0,10827.0
1679342886375768,182874.0,225392.0,10794.0
1679342886383768,182852.0,225389.0,10819.0
1679342886394769,182865.0,225395.0,10840.0
1679342886404769,182894.0,225396.0,10833.0
1679342886415769,182914.0,225351.0,10845.0
1679342886424769,182919.0,225332.0,10828.0
1679342886434769,182923.0,225414.0,10833.0
1679342886444769,182956.0,225410.0,10834.0
1679342886454769,182949.0,225435.0,10839.0
1679342886463769,182978.0,225439.0,10803.0
1679342886474769,182983.0,225457.0,10817.0
1679342886484769,182973.0,225407.0,10830.0
1679342886495769,182985.0,225447.0,10848.0
1679342886504769,183000.0,225436.0,10840.0
1679342886514769,183000.0,225413.0,10852.0
1679342886524769,182994.0,225449.0,10844.0
1679342886535769,183000.0,225445.0,10848.0
1679342886544769,183018.0,225434.0,10844.0
1679342886554769,183033.0,225482.0,10849.0
1679342886565769,183038.0,225456.0,10851.0
1679342886575769,183057.0,225435.0,10848.0
1679342886584769,183066.0,225518.0,10842.0
1679342886594769,183096.0,225481.0,10842.0
1679342886604769,183098.0,225491.0,10845.0
1679342886615769,183140.0,225550.0,10845.0
1679342886624769,183161.0,225544.0,10863.0
1679342886633769,183155.0,225551.0,10863.0
1679342886644769,183162.0,225592.0,10864.0
1679342886654769,183159.0,225577.0,10867.0
1679342886665769,183176.0,225567.0,10873.0
1679342886673769,183182.0,225575.0,10862.0
1679342886684769,183200.0,225566.0,10845.0
1679342886694769,183206.0,225537.0,10848.0
1679342886704769,183202.0,225568.0,10870.0
1679342886714769,183202.0,225572.0,10860.0
1679342886724769,183216.0,225540.0,10877.0
1679342886734768,183242.0,225553.0,10872.0
1679342886744768,183274.0,225582.0,10881.0
1679342886755769,183299.0,225585.0,10888.0
1679342886766769,183354.0,225602.0,10887.0
1679342886774768,183378.0,225630.0,10867.0
1679342886784768,183445.0,225652.0,10902.0
1679342886795768,183482.0,225677.0,10904.0
1679342886804768,183530.0,225691.0,10910.0
1679342886813768,183579.0,225745.0,10925.0
1679342886824768,183629.0,225770.0,10897.0
1679342886834768,183696.0,225802.0,10899.0
1679342886844768,183765.0,225801.0,10923.0
1679342886853768,183825.0,225829.0,10927.0
1679342886866768,183879.0,225867.0,10948.0
1679342886874768,183932.0,225899.0,10976.0
1679342886884768,183972.0,225926.0,10962.0
1679342886894768,184004.0,225921.0,10970.0
1679342886904768,184033.0,225941.0,10974.0
1679342886915768,184067.0,225954.0,10986.0
1679342886923768,184100.0,225950.0,10980.0
1679342886933769,184112.0,225987.0,10994.0
1679342886944769,184167.0,225964.0,10977.0
1679342886954769,184193.0,226013.0,10978.0
1679342886964769,184227.0,226014.0,10975.0
1679342886974769,184277.0,226018.0,10993.0
1679342886984768,184326.0,226018.0,11021.0
1679342886994768,184351.0,226033.0,11028.0
1679342887004768,184417.0,226040.0,11015.0
1679342887014768,184447.0,226068.0,11040.0
1679342887024768,184479.0,226085.0,11038.0
1679342887035768,184530.0,226099.0,11045.0
1679342887044768,184581.0,226103.0,11051.0
1679342887053768,184606.0,226147.0,11060.0
1679342887064768,184668.0,226138.0,11042.0
1679342887074768,184693.0,226154.0,11064.0
1679342887084768,184720.0,226100.0,11061.0
1679342887094768,184748.0,226130.0,11076.0
1679342887104768,184797.0,226182.0,11076.0
1679342887114769,184835.0,226217.0,11088.0
1679342887124769,184876.0,226163.0,11106.0
1679342887134769,184923.0,226220.0,11102.0
1679342887144769,184979.0,226248.0,11104.0
1679342887154769,185011.0,226253.0,11088.0
1679342887164769,185073.0,226285.0,11084.0
1679342887173769,185143.0,226303.0,11118.0
1679342887184769,185226.0,226307.0,11122.0
1679342887193769,185292.0,226308.0,11153.0
1679342887204769,185397.0,226346.0,11143.0
1679342887213769,185482.0,226385.0,11148.0
1679342887224769,185588.0,226402.0,11184.0
1679342887233769,185667.0,226418.0,11203.0
1679342887244768,185768.0,226450.0,11196.0
1679342887254768,185916.0,226466.0,11223.0
1679342887264768,186066.0,226516.0,11252.0
1679342887274768,186134.0,226527.0,11259.0
1679342887284768,186214.0,226533.0,11278.0
1679342887295769,186262.0,226537.0,11279.0
1679342887304769,186290.0,226510.0,11285.0
1679342887314769,186305.0,226541.0,11292.0
1679342887324769,186293.0,226522.0,11281.0
1679342887334769,186307.0,226516.0,11284.0
1679342887344769,186221.0,226458.0,11264.0
1679342887353769,186235.0,226454.0,11278.0
1679342887364769,186170.0,226465.0,11281.0
1679342887374769,186131.0,226426.0,11275.0
1679342887384769,186188.0,226434.0,11256.0
1679342887393769,186172.0,226427.0,11242.0
1679342887404769,186157.0,226436.0,11226.0
1679342887414769,186133.0,226405.0,11241.0
1679342887423769,186097.0,226403.0,11249.0
1679342887434769,186025.0,226399.0,11251.0
1679342887444769,185970.0,226380.0,11237.0
1679342887454769,185936.0,226372.0,11205.0
1679342887463769,185871.0,226355.0,11199.0
1679342887474769,185821.0,226335.0,11221.0
1679342887484769,185729.0,226276.0,11208.0
1679342887495769,185708.0,226321.0,11209.0
1679342887504769,185627.0,226292.0,11193.0
1679342887513769,185512.0,226250.0,11185.0
1679342887524769,185419.0,226247.0,11165.0
1679342887534769,185348.0,226213.0,11151.0
1679342887544769,185251.0,226200.0,11156.0
1679342887553769,185144.0,226172.0,11140.0
1679342887564769,185056.0,226116.0,11127.0
1679342887573769,184951.0,226081.0,11121.0
1679342887584769,184865.0,226035.0,11085.0
1679342887594769,184781.0,225997.0,11085.0
1679342887604769,184656.0,225950.0,11070.0
1679342887614769,184530.0,225923.0,11054.0
1679342887624769,184425.0,225829.0,11032.0
1679342887634769,184263.0,225786.0,11012.0
1679342887644769,184063.0,225681.0,10986.0
1679342887654769,183864.0,225584.0,10971.0
1679342887664769,183669.0,225491.0,10947.0
1679342887674769,183505.0,225412.0,10918.0
1679342887684769,183350.0,225304.0,10909.0
1679342887694769,183299.0,225313.0,10896.0
1679342887704769,183238.0,225266.0,10892.0
1679342887714769,183201.0,225243.0,10883.0
1679342887723769,183193.0,225267.0,10872.0
1679342887734769,183166.0,225286.0,10884.0
1679342887744769,183189.0,225325.0,10883.0
1679342887755769,183205.0,225322.0,10890.0
1679342887763769,183238.0,225300.0,10888.0
1679342887774768,183262.0,225362.0,10891.0
1679342887784768,183349.0,225442.0,10898.0
1679342887794768,183332.0,225482.0,10898.0
1679342887803768,183358.0,225518.0,10900.0
1679342887814768,183384.0,225528.0,10919.0
1679342887824768,183405.0,225566.0,10916.0
1679342887834769,183457.0,225593.0,10917.0
1679342887843769,183458.0,225618.0,10930.0
1679342887854769,183532.0,225646.0,10915.0
1679342887864769,183551.0,225673.0,10914.0
1679342887874769,183576.0,225690.0,10923.0
1679342887883769,183590.0,225719.0,10928.0
1679342887894769,183631.0,225719.0,10893.0
1679342887904769,183645.0,225715.0,10938.0
1679342887914769,183660.0,225711.0,10943.0
1679342887923769,183671.0,225679.0,10932.0
1679342887934769,183656.0,225738.0,10944.0
1679342887944769,183665.0,225701.0,10937.0
1679342887954769,183641.0,225723.0,10933.0
1679342887963769,183587.0,225692.0,10929.0
1679342887975769,183561.0,225671.0,10927.0
1679342887983769,183519.0,225647.0,10914.0
1679342887994768,183503.0,225703.0,10904.0
1679342888004768,183462.0,225674.0,10929.0
1679342888014769,183422.0,225696.0,10921.0
1679342888023769,183405.0,225662.0,10919.0
1679342888034769,183477.0,225683.0,10918.0
1679342888044769,183470.0,225696.0,10911.0
1679342888054769,183478.0,225677.0,10907.0
1679342888063769,183494.0,225673.0,10910.0
1679342888075769,183526.0,225698.0,10915.0
1679342888084769,183554.0,225690.0,10927.0
1679342888094769,183594.0,225690.0,10932.0
1679342888103769,183641.0,225707.0,10943.0
1679342888114769,183688.0,225767.0,10948.0
1679342888124769,183737.0,225785.0,10950.0
1679342888133769,183807.0,225815.0,10953.0
1679342888143769,183883.0,225860.0,10969.0
1679342888154769,183941.0,225878.0,10983.0
1679342888164769,183995.0,225901.0,11003.0
1679342888175769,184091.0,225932.0,10998.0
1679342888183769,184133.0,225937.0,11020.0
1679342888194769,184207.0,225971.0,11023.0
1679342888204769,184312.0,225996.0,11038.0
1679342888214769,184401.0,225990.0,11048.0
1679342888224769,184496.0,226026.0,11040.0
1679342888233769,184604.0,226124.0,11044.0
1679342888244769,184682.0,226124.0,11052.0
1679342888254769,184754.0,226156.0,11070.0
1679342888264769,184789.0,226204.0,11084.0
1679342888273769,184831.0,226203.0,11109.0
1679342888284769,184874.0,226251.0,11107.0
1679342888294769,184946.0,226245.0,11110.0
1679342888303769,185009.0,226246.0,11111.0
1679342888313769,185072.0,226269.0,11131.0
1679342888324769,185141.0,226274.0,11136.0
1679342888334769,185198.0,226298.0,11151.0
1679342888343769,185247.0,226334.0,11144.0
1679342888354769,185315.0,226361.0,11159.0
1679342888364769,185397.0,226394.0,11178.0
1679342888374769,185453.0,226410.0,11176.0
1679342888383769,185528.0,226446.0,11191.0
1679342888394769,185599.0,226478.0,11195.0
1679342888404769,185662.0,226486.0,11204.0
1679342888413769,185709.0,226496.0,11198.0
1679342888423769,185775.0,226539.0,11212.0
1679342888433769,185818.0,226566.0,11229.0
1679342888444769,185860.0,226599.0,11226.0
1679342888454769,185932.0,226625.0,11240.0
1679342888463769,185971.0,226634.0,11261.0
1679342888473769,186055.0,226643.0,11263.0
1679342888484768,186110.0,226674.0,11269.0
1679342888493769,186153.0,226707.0,11259.0
1679342888504768,186225.0,226724.0,11263.0
1679342888513769,186302.0,226709.0,11273.0
1679342888524768,186329.0,226709.0,11261.0
1679342888533769,186343.0,226735.0,11295.0
1679342888544768,186414.0,226763.0,11282.0
1679342888553769,186446.0,226762.0,11278.0
1679342888564769,186420.0,226775.0,11321.0
1679342888573769,186463.0,226771.0,11323.0
1679342888584769,186410.0,226741.0,11305.0
1679342888593769,186389.0,226720.0,11306.0
1679342888603769,186337.0,226724.0,11262.0
1679342888613769,186332.0,226678.0,11287.0
1679342888624769,186306.0,226690.0,11293.0
1679342888633769,186260.0,226679.0,11287.0
1679342888644769,186146.0,226613.0,11276.0
1679342888653769,186132.0,226569.0,11277.0
1679342888664769,186092.0,226589.0,11274.0
1679342888673769,186108.0,226595.0,11264.0
1679342888684769,186105.0,226540.0,11268.0
1679342888693769,186072.0,226595.0,11276.0
1679342888704769,186102.0,226604.0,11280.0
1679342888713769,186129.0,226608.0,11280.0
1679342888723769,186158.0,226634.0,11281.0
1679342888733769,186228.0,226648.0,11275.0
1679342888744769,186260.0,226673.0,11301.0
1679342888754769,186331.0,226683.0,11301.0
1679342888764769,186370.0,226714.0,11297.0
1679342888773769,186408.0,226676.0,11319.0
1679342888784769,186427.0,226682.0,11313.0
1679342888794769,186427.0,226756.0,11322.0
1679342888804769,186503.0,226747.0,11332.0
1679342888813769,186518.0,226747.0,11334.0
1679342888824769,186521.0,226750.0,11335.0
1679342888834769,186529.0,226733.0,11331.0
1679342888844769,186520.0,226699.0,11342.0
1679342888853769,186504.0,226659.0,11333.0
1679342888864769,186479.0,226670.0,11328.0
1679342888874769,186434.0,226665.0,11321.0
1679342888883769,186405.0,226651.0,11319.0
1679342888893769,186353.0,226675.0,11308.0
1679342888904769,186339.0,226649.0,11322.0
1679342888914769,186329.0,226620.0,11310.0
1679342888923769,186351.0,226627.0,11308.0
1679342888933769,186360.0,226596.0,11317.0
1679342888944769,186376.0,226609.0,11336.0
1679342888954769,186403.0,226571.0,11332.0
1679342888963769,186451.0,226548.0,11336.0
1679342888973769,186504.0,226600.0,11342.0
1679342888984769,186593.0,226668.0,11358.0
1679342888994769,186688.0,226656.0,11357.0
1679342889004769,186765.0,226738.0,11381.0
1679342889013769,186864.0,226703.0,11374.0
1679342889024769,186933.0,226754.0,11403.0
1679342889034769,186985.0,226786.0,11415.0
1679342889044769,187047.0,226761.0,11410.0
1679342889053769,187144.0,226783.0,11425.0
1679342889064769,187217.0,226851.0,11434.0
1679342889073769,187341.0,226834.0,11444.0
1679342889084769,187402.0,226873.0,11461.0
1679342889093769,187548.0,226946.0,11495.0
1679342889104769,187577.0,226973.0,11496.0
1679342889113769,187662.0,226984.0,11499.0
1679342889124769,187726.0,227036.0,11515.0
1679342889133769,187816.0,227020.0,11521.0
1679342889144769,187845.0,227021.0,11531.0
1679342889154769,187887.0,227013.0,11528.0
1679342889164769,187946.0,227043.0,11527.0
1679342889173769,187990.0,227080.0,11538.0
1679342889184769,188013.0,227090.0,11550.0
1679342889193769,188028.0,227139.0,11555.0
1679342889204769,188060.0,227067.0,11560.0
1679342889213769,188067.0,227092.0,11564.0
1679342889224769,188058.0,227066.0,11550.0
1679342889233769,188025.0,227023.0,11550.0
1679342889244768,187977.0,226989.0,11541.0
1679342889254768,187915.0,226973.0,11532.0
1679342889263769,187821.0,226945.0,11528.0
1679342889273769,187758.0,226946.0,11500.0
1679342889284769,187709.0,226898.0,11513.0
1679342889294769,187697.0,226993.0,11500.0
1679342889304769,187657.0,226861.0,11508.0
1679342889313769,187676.0,226877.0,11494.0
1679342889324769,187672.0,226889.0,11512.0
1679342889334769,187683.0,226927.0,11508.0
1679342889343769,187671.0,226932.0,11514.0
1679342889353769,187713.0,226927.0,11526.0
1679342889363769,187725.0,226938.0,11519.0
1679342889374769,187770.0,226970.0,11526.0
1679342889383769,187795.0,226971.0,11525.0
1679342889393769,187815.0,226985.0,11532.0
1679342889404769,187863.0,226991.0,11526.0
1679342889414769,187892.0,226983.0,11528.0
1679342889423769,187885.0,226997.0,11536.0
1679342889433769,187884.0,226996.0,11528.0
1679342889444769,187885.0,226980.0,11540.0
1679342889454769,187899.0,226955.0,11532.0
1679342889463769,187920.0,227024.0,11539.0
1679342889473769,187948.0,227002.0,11507.0
1679342889483769,187940.0,227006.0,11506.0
1679342889493769,187989.0,227033.0,11540.0
1679342889504769,188008.0,227004.0,11545.0
1679342889513769,188047.0,227047.0,11546.0
1679342889524769,188078.0,227027.0,11547.0
1679342889533769,188094.0,227033.0,11553.0
1679342889544769,188103.0,227065.0,11578.0
1679342889553769,188141.0,227019.0,11558.0
1679342889564769,188155.0,227034.0,11557.0
1679342889573769,188175.0,227039.0,11562.0
1679342889584769,188208.0,227108.0,11581.0
1679342889593769,188226.0,227081.0,11575.0
1679342889604769,188246.0,227031.0,11584.0
1679342889613769,188288.0,227071.0,11593.0
1679342889624769,188333.0,227126.0,11598.0
1679342889633769,188361.0,227160.0,11599.0
1679342889644769,188402.0,227085.0,11598.0
1679342889653769,188422.0,227149.0,11605.0
1679342889663769,188448.0,227161.0,11615.0
1679342889673769,188494.0,227166.0,11553.0
1679342889683769,188507.0,227167.0,11591.0
1679342889693769,188558.0,227212.0,11592.0
1679342889703769,188497.0,227182.0,11625.0
1679342889713769,188531.0,227196.0,11598.0
1679342889723769,188546.0,227203.0,11590.0
1679342889733769,188574.0,227224.0,11582.0
1679342889743769,188578.0,227211.0,11596.0
1679342889754768,188592.0,227208.0,11616.0
1679342889763769,188553.0,227182.0,11596.0
1679342889773769,188554.0,227184.0,11592.0
1679342889783769,188531.0,227186.0,11608.0
1679342889794768,188518.0,227182.0,11587.0
1679342889803768,188473.0,227136.0,11613.0
1679342889813769,188436.0,227102.0,11609.0
1679342889824769,188430.0,227109.0,11585.0
1679342889834769,188399.0,227120.0,11592.0
1679342889843769,188368.0,227121.0,11591.0
1679342889853769,188337.0,227086.0,11573.0
1679342889863769,188274.0,227077.0,11568.0
1679342889874769,188270.0,227056.0,11545.0
1679342889882768,188255.0,227051.0,11565.0
1679342889893768,188258.0,227053.0,11558.0
1679342889904768,188228.0,227046.0,11579.0
1679342889913768,188250.0,227048.0,11576.0
1679342889923768,188250.0,226997.0,11578.0
1679342889933768,188246.0,226990.0,11569.0
1679342889944768,188266.0,227029.0,11574.0
1679342889953768,188275.0,227048.0,11587.0
1679342889963768,188286.0,227086.0,11588.0
1679342889973768,188289.0,227041.0,11578.0
1679342889983768,188299.0,227114.0,11593.0
1679342889993769,188324.0,227115.0,11592.0
1679342890004769,188346.0,227109.0,11600.0
1679342890013769,188362.0,227133.0,11587.0
1679342890023769,188372.0,227185.0,11587.0
1679342890033769,188403.0,227088.0,11599.0
1679342890044769,188427.0,227129.0,11597.0
1679342890053769,188440.0,227158.0,11606.0
1679342890064769,188468.0,227161.0,11606.0
1679342890073769,188487.0,227169.0,11609.0
1679342890084769,188489.0,227154.0,11615.0
1679342890093769,188470.0,227133.0,11618.0
1679342890103769,188468.0,227147.0,11610.0
1679342890113769,188423.0,227149.0,11587.0
1679342890124769,188411.0,227067.0,11609.0
1679342890133769,188398.0,227065.0,11583.0
1679342890143769,188380.0,227089.0,11592.0
1679342890153769,188352.0,227058.0,11588.0
1679342890164769,188328.0,227068.0,11590.0
1679342890173769,188324.0,227078.0,11589.0
1679342890183769,188301.0,227039.0,11591.0
1679342890193769,188285.0,227067.0,11578.0
1679342890204769,188252.0,227031.0,11576.0
1679342890213769,188210.0,227074.0,11571.0
1679342890223769,188190.0,227034.0,11574.0
1679342890233769,188163.0,227005.0,11568.0
1679342890243769,188069.0,227020.0,11574.0
1679342890254768,188089.0,227011.0,11539.0
1679342890263769,188072.0,226992.0,11528.0
1679342890273769,187999.0,226994.0,11557.0
1679342890283769,187969.0,226978.0,11554.0
1679342890294768,187990.0,226985.0,11523.0
1679342890303768,187980.0,226962.0,11543.0
1679342890313768,187935.0,226993.0,11537.0
1679342890324768,187917.0,226941.0,11542.0
1679342890333768,187881.0,226930.0,11528.0
1679342890343768,187861.0,226887.0,11531.0
1679342890353769,187809.0,226881.0,11509.0
1679342890363769,187780.0,226936.0,11523.0
1679342890373769,187764.0,226897.0,11500.0
1679342890382769,187719.0,226920.0,11495.0
1679342890393769,187690.0,226875.0,11459.0
1679342890404769,187633.0,226891.0,11500.0
1679342890414769,187587.0,226820.0,11487.0
1679342890422768,187440.0,226822.0,11481.0
1679342890433768,187395.0,226782.0,11474.0
1679342890443768,187300.0,226745.0,11445.0
1679342890454768,187238.0,226729.0,11450.0
1679342890463768,187157.0,226696.0,11435.0
1679342890473768,187139.0,226678.0,11431.0
1679342890483768,187111.0,226681.0,11428.0
1679342890493768,187090.0,226690.0,11426.0
1679342890503768,187080.0,226682.0,11418.0
1679342890513768,187122.0,226678.0,11420.0
1679342890523768,187143.0,226686.0,11431.0
1679342890533769,187134.0,226717.0,11425.0
1679342890543769,187136.0,226707.0,11426.0
1679342890553769,187157.0,226725.0,11400.0
1679342890563769,187147.0,226699.0,11391.0
1679342890573769,187153.0,226761.0,11431.0
1679342890583769,187118.0,226759.0,11430.0
1679342890594769,187105.0,226778.0,11437.0
1679342890603769,187160.0,226741.0,11419.0
1679342890613769,187133.0,226803.0,11437.0
1679342890623769,187144.0,226788.0,11432.0
1679342890633769,187200.0,226833.0,11432.0
1679342890643769,187187.0,226826.0,11436.0
1679342890653769,187195.0,226845.0,11441.0
1679342890663769,187243.0,226855.0,11430.0
1679342890673769,187228.0,226862.0,11449.0
1679342890683769,187213.0,226856.0,11444.0
1679342890695769,187265.0,226864.0,11439.0
1679342890703769,187270.0,226863.0,11451.0
1679342890713769,187318.0,226865.0,11424.0
1679342890722769,187330.0,226850.0,11427.0
1679342890733769,187289.0,226866.0,11454.0
1679342890743769,187327.0,226875.0,11444.0
1679342890754769,187381.0,226870.0,11457.0
1679342890763769,187450.0,226884.0,11473.0
1679342890773769,187481.0,226924.0,11472.0
1679342890783769,187565.0,226893.0,11468.0
1679342890793769,187593.0,226937.0,11461.0
1679342890803769,187671.0,226959.0,11479.0
1679342890813769,187728.0,226951.0,11503.0
1679342890823769,187780.0,226961.0,11509.0
1679342890833769,187830.0,226982.0,11520.0
1679342890843769,187870.0,226974.0,11506.0
1679342890853769,187874.0,227005.0,11527.0
1679342890863769,187888.0,227007.0,11530.0
1679342890874769,187899.0,226983.0,11525.0
1679342890883769,187913.0,227003.0,11529.0
1679342890892769,187912.0,227043.0,11537.0
1679342890902769,187934.0,226999.0,11515.0
1679342890913769,187933.0,226998.0,11546.0
1679342890922769,187937.0,227012.0,11538.0
1679342890931769,187939.0,227028.0,11517.0
1679342890942769,187929.0,227015.0,11494.0
1679342890952769,187942.0,227010.0,11514.0
1679342890962769,187884.0,227012.0,11543.0
1679342890971769,187902.0,227023.0,11538.0
1679342890982769,187918.0,227005.0,11504.0
1679342890992769,187865.0,227001.0,11528.0
1679342891002769,187829.0,226969.0,11533.0
1679342891011769,187816.0,226960.0,11528.0
1679342891022769,187750.0,226905.0,11485.0
1679342891033769,187704.0,226873.0,11507.0
1679342891042769,187649.0,226859.0,11503.0
1679342891051769,187597.0,226844.0,11471.0
1679342891062769,187579.0,226836.0,11462.0
1679342891073769,187565.0,226856.0,11492.0
1679342891084769,187593.0,226832.0,11462.0
1679342891092769,187540.0,226858.0,11492.0
1679342891103768,187570.0,226846.0,11496.0
1679342891113768,187617.0,226859.0,11501.0
1679342891123768,187601.0,226873.0,11485.0
1679342891132768,187666.0,226885.0,11467.0
1679342891143768,187690.0,226883.0,11508.0
1679342891153768,187749.0,226925.0,11523.0
1679342891164768,187785.0,226950.0,11514.0
1679342891172768,187818.0,226905.0,11524.0
1679342891183768,187872.0,226957.0,11538.0
1679342891193768,187928.0,226988.0,11536.0
1679342891203768,187983.0,226945.0,11545.0
1679342891213768,187979.0,227026.0,11558.0
1679342891223768,188032.0,227034.0,11579.0
1679342891233768,188138.0,227047.0,11560.0
1679342891243768,188141.0,227070.0,11563.0
1679342891253769,188143.0,227067.0,11576.0
1679342891263769,188158.0,227060.0,11588.0
1679342891273769,188206.0,227067.0,11564.0
1679342891283769,188210.0,227069.0,11574.0
1679342891293769,188171.0,227021.0,11579.0
1679342891303769,188175.0,227042.0,11582.0
1679342891313769,188163.0,227024.0,11576.0
1679342891323769,188156.0,227001.0,11578.0
1679342891333769,188165.0,227018.0,11576.0
1679342891343769,188174.0,227060.0,11571.0
1679342891353769,188201.0,226992.0,11570.0
1679342891363769,188207.0,226990.0,11579.0
1679342891373769,188256.0,227033.0,11596.0
1679342891383769,188312.0,227036.0,11584.0
1679342891393769,188347.0,227062.0,11586.0
1679342891403769,188386.0,227073.0,11622.0
1679342891413769,188361.0,227134.0,11617.0
1679342891423769,188421.0,227137.0,11618.0
1679342891433769,188483.0,227153.0,11622.0
1679342891443769,188523.0,227156.0,11625.0
1679342891453769,188553.0,227096.0,11624.0
1679342891463769,188578.0,227141.0,11624.0
1679342891473769,188613.0,227166.0,11638.0
1679342891483769,188641.0,227159.0,11644.0
1679342891493769,188664.0,227154.0,11646.0
1679342891503769,188665.0,227189.0,11649.0
1679342891513769,188743.0,227202.0,11657.0
1679342891523769,188730.0,227204.0,11648.0
1679342891533769,188797.0,227241.0,11659.0
1679342891543769,188788.0,227239.0,11667.0
1679342891553768,188786.0,227232.0,11662.0
1679342891563768,188914.0,227164.0,11652.0
1679342891573768,188851.0,227209.0,11661.0
1679342891583768,188833.0,227195.0,11672.0
1679342891593768,188874.0,227194.0,11681.0
1679342891602769,188848.0,227157.0,11673.0
1679342891613769,188857.0,227220.0,11665.0
1679342891623769,188792.0,227221.0,11674.0
1679342891633769,188783.0,227226.0,11653.0
1679342891643769,188781.0,227158.0,11656.0
1679342891653769,188743.0,227110.0,11661.0
1679342891663769,188711.0,227073.0,11647.0
1679342891672769,188685.0,227096.0,11642.0
1679342891683769,188673.0,227102.0,11607.0
1679342891692769,188662.0,227091.0,11626.0
1679342891703769,188676.0,227105.0,11638.0
1679342891713769,188683.0,227126.0,11638.0
1679342891722769,188673.0,227088.0,11643.0
1679342891733769,188675.0,227134.0,11648.0
1679342891743769,188700.0,227122.0,11639.0
1679342891754768,188703.0,227120.0,11652.0
1679342891762768,188714.0,227107.0,11654.0
1679342891773768,188724.0,227155.0,11644.0
1679342891783768,188733.0,227130.0,11648.0
1679342891794769,188716.0,227122.0,11648.0
1679342891803769,188705.0,227163.0,11651.0
1679342891813769,188706.0,227145.0,11642.0
1679342891823769,188675.0,227132.0,11640.0
1679342891834769,188641.0,227139.0,11634.0
1679342891842769,188632.0,227142.0,11637.0
1679342891852769,188583.0,227125.0,11630.0
1679342891863768,188464.0,227135.0,11633.0
1679342891873768,188437.0,227101.0,11618.0
1679342891883768,188394.0,227079.0,11616.0
1679342891892768,188353.0,227077.0,11602.0
1679342891904769,188329.0,227080.0,11603.0
1679342891913769,188297.0,227058.0,11589.0
1679342891922769,188317.0,227016.0,11567.0
1679342891933769,188274.0,227010.0,11581.0
1679342891943769,188235.0,226989.0,11576.0
1679342891953769,188192.0,227000.0,11570.0
1679342891963769,188151.0,226978.0,11570.0
1679342891973769,188100.0,226942.0,11562.0
1679342891983769,188049.0,226943.0,11552.0
1679342891993769,188021.0,226922.0,11519.0
1679342892005769,187975.0,226890.0,11503.0
1679342892013769,187949.0,226877.0,11511.0
1679342892023769,187889.0,226841.0,11533.0
1679342892033769,187860.0,226826.0,11525.0
1679342892043769,187827.0,226843.0,11489.0
1679342892052769,187756.0,226833.0,11498.0
1679342892063769,187695.0,226805.0,11493.0
1679342892072769,187644.0,226836.0,11486.0
1679342892083769,187599.0,226769.0,11460.0
1679342892092769,187532.0,226804.0,11479.0
1679342892103769,187498.0,226760.0,11470.0
1679342892113769,187434.0,226775.0,11466.0
1679342892123769,187347.0,226709.0,11457.0
1679342892133769,187321.0,226722.0,11448.0
1679342892143769,187263.0,226720.0,11447.0
1679342892152769,187212.0,226703.0,11439.0
1679342892163769,187175.0,226696.0,11421.0
1679342892172769,187098.0,226688.0,11395.0
1679342892183769,187075.0,226695.0,11368.0
1679342892192769,187041.0,226713.0,11377.0
1679342892203769,187008.0,226700.0,11371.0
1679342892213769,186941.0,226693.0,11384.0
1679342892222769,186901.0,226697.0,11389.0
1679342892233769,186866.0,226680.0,11392.0
1679342892243769,186788.0,226638.0,11374.0
1679342892253769,186751.0,226669.0,11371.0
1679342892262769,186698.0,226672.0,11352.0
1679342892273769,186657.0,226696.0,11354.0
1679342892283769,186663.0,226652.0,11347.0
1679342892293769,186576.0,226634.0,11334.0
1679342892302769,186486.0,226619.0,11331.0
1679342892313768,186455.0,226655.0,11322.0
1679342892323768,186390.0,226665.0,11328.0
1679342892333769,186354.0,226642.0,11325.0
1679342892342769,186380.0,226651.0,11318.0
1679342892353769,186337.0,226585.0,11313.0
1679342892363769,186288.0,226557.0,11293.0
1679342892373769,186205.0,226555.0,11298.0
1679342892382769,186152.0,226526.0,11289.0
1679342892392769,186090.0,226476.0,11288.0
1679342892403769,186038.0,226511.0,11238.0
1679342892413769,186002.0,226481.0,11246.0
1679342892422769,185974.0,226434.0,11261.0
1679342892433769,185973.0,226415.0,11270.0
1679342892443769,186013.0,226453.0,11259.0
1679342892453769,186043.0,226508.0,11277.0
1679342892463769,186127.0,226513.0,11278.0
1679342892473769,186144.0,226526.0,11290.0
1679342892483769,186176.0,226499.0,11290.0
1679342892493769,186185.0,226518.0,11288.0
1679342892503769,186186.0,226520.0,11281.0
1679342892513769,186187.0,226571.0,11292.0
1679342892523769,186213.0,226573.0,11294.0
1679342892533769,186214.0,226624.0,11297.0
1679342892543769,186250.0,226569.0,11303.0
1679342892553769,186246.0,226616.0,11304.0
1679342892563769,186284.0,226651.0,11309.0
1679342892572769,186314.0,226645.0,11314.0
1679342892583769,186376.0,226659.0,11304.0
1679342892593769,186377.0,226689.0,11318.0
1679342892603769,186411.0,226685.0,11324.0
1679342892613769,186432.0,226699.0,11296.0
1679342892623769,186427.0,226702.0,11335.0
1679342892633769,186416.0,226675.0,11327.0
1679342892642769,186417.0,226640.0,11329.0
1679342892653769,186408.0,226665.0,11315.0
1679342892663769,186397.0,226621.0,11323.0
1679342892673769,186413.0,226665.0,11335.0
1679342892682769,186398.0,226645.0,11324.0
1679342892693769,186418.0,226639.0,11329.0
1679342892703769,186479.0,226668.0,11327.0
1679342892713769,186469.0,226682.0,11306.0
1679342892722769,186486.0,226691.0,11337.0
1679342892733769,186496.0,226697.0,11343.0
1679342892743769,186497.0,226658.0,11334.0
1679342892753769,186517.0,226659.0,11337.0
1679342892762769,186593.0,226702.0,11316.0
1679342892772769,186569.0,226697.0,11335.0
1679342892783769,186614.0,226703.0,11344.0
1679342892793769,186620.0,226728.0,11332.0
1679342892802769,186636.0,226720.0,11327.0
1679342892813768,186663.0,226718.0,11330.0
1679342892823768,186639.0,226713.0,11356.0
1679342892833768,186670.0,226720.0,11372.0
1679342892842769,186674.0,226707.0,11367.0
1679342892853768,186697.0,226700.0,11350.0
1679342892863768,186691.0,226727.0,11356.0
1679342892873769,186672.0,226723.0,11363.0
1679342892882769,186663.0,226718.0,11365.0
1679342892892769,186660.0,226724.0,11336.0
1679342892903769,186651.0,226706.0,11325.0
1679342892912769,186645.0,226709.0,11356.0
1679342892922769,186610.0,226701.0,11316.0
1679342892932769,186608.0,226690.0,11337.0
1679342892943769,186551.0,226666.0,11363.0
1679342892953769,186603.0,226639.0,11352.0
1679342892963769,186585.0,226648.0,11340.0
1679342892972769,186584.0,226636.0,11355.0
1679342892983769,186589.0,226629.0,11357.0
1679342892993769,186591.0,226613.0,11348.0
1679342893003769,186575.0,226631.0,11360.0
1679342893012769,186572.0,226621.0,11358.0
1679342893023769,186572.0,226665.0,11348.0
1679342893032769,186563.0,226671.0,11347.0
1679342893043769,186552.0,226668.0,11360.0
1679342893052769,186538.0,226679.0,11358.0
1679342893063769,186573.0,226685.0,11368.0
1679342893072769,186618.0,226694.0,11363.0
1679342893083769,186639.0,226726.0,11352.0
1679342893092769,186658.0,226703.0,11363.0
1679342893103769,186689.0,226723.0,11367.0
1679342893113769,186714.0,226729.0,11364.0
1679342893123769,186776.0,226735.0,11353.0
1679342893132769,186748.0,226691.0,11381.0
1679342893143769,186763.0,226696.0,11385.0
1679342893153769,186783.0,226721.0,11386.0
1679342893163769,186762.0,226721.0,11390.0
1679342893172769,186762.0,226694.0,11379.0
1679342893183769,186781.0,226715.0,11386.0
1679342893192769,186779.0,226688.0,11383.0
1679342893203769,186774.0,226661.0,11391.0
1679342893213769,186763.0,226695.0,11369.0
1679342893223769,186711.0,226682.0,11335.0
1679342893232769,186664.0,226653.0,11368.0
1679342893243769,186629.0,226633.0,11367.0
1679342893253769,186598.0,226542.0,11352.0
1679342893263769,186547.0,226571.0,11353.0
1679342893272769,186535.0,226528.0,11345.0
1679342893283769,186506.0,226550.0,11347.0
1679342893293769,186512.0,226542.0,11354.0
1679342893302769,186533.0,226566.0,11328.0
1679342893314769,186567.0,226572.0,11322.0
1679342893323769,186616.0,226579.0,11348.0
1679342893333769,186687.0,226634.0,11379.0
1679342893343769,186750.0,226652.0,11390.0
1679342893352769,186795.0,226680.0,11385.0
1679342893363769,186869.0,226677.0,11396.0
1679342893373769,186932.0,226721.0,11402.0
1679342893382769,186980.0,226733.0,11414.0
1679342893392769,187047.0,226745.0,11425.0
1679342893403769,187102.0,226781.0,11426.0
1679342893415769,187150.0,226794.0,11435.0
1679342893422769,187181.0,226814.0,11450.0
1679342893432769,187231.0,226835.0,11444.0
1679342893442769,187235.0,226818.0,11452.0
1679342893453769,187260.0,226849.0,11401.0
1679342893463769,187268.0,226835.0,11427.0
1679342893472769,187289.0,226823.0,11438.0
1679342893482769,187257.0,226823.0,11448.0
1679342893493769,187267.0,226844.0,11424.0
1679342893503769,187259.0,226837.0,11417.0
1679342893512769,187264.0,226840.0,11420.0
1679342893523769,187245.0,226816.0,11416.0
1679342893533769,187225.0,226761.0,11443.0
1679342893543769,187203.0,226803.0,11444.0
1679342893552769,187157.0,226781.0,11429.0
1679342893562769,187125.0,226767.0,11430.0
1679342893573768,187095.0,226755.0,11420.0
1679342893583768,187059.0,226755.0,11411.0
1679342893592769,187013.0,226732.0,11415.0
1679342893602769,186989.0,226704.0,11385.0
1679342893613769,186925.0,226742.0,11388.0
1679342893622769,186923.0,226716.0,11361.0
1679342893632769,186890.0,226700.0,11376.0
1679342893642769,186858.0,226697.0,11376.0
1679342893653769,186844.0,226681.0,11366.0
1679342893662769,186781.0,226697.0,11376.0
1679342893672769,186733.0,226672.0,11380.0
1679342893682769,186701.0,226647.0,11384.0
1679342893693769,186693.0,226647.0,11361.0
1679342893702769,186658.0,226637.0,11339.0
1679342893713769,186650.0,226631.0,11333.0
1679342893722769,186569.0,226633.0,11357.0
1679342893732769,186586.0,226601.0,11342.0
1679342893742769,186556.0,226607.0,11350.0
1679342893753769,186537.0,226580.0,11325.0
1679342893762769,186507.0,226571.0,11314.0
1679342893772769,186483.0,226563.0,11326.0
1679342893781769,186460.0,226560.0,11305.0
1679342893792769,186365.0,226561.0,11338.0
1679342893801769,186334.0,226538.0,11343.0
1679342893812769,186346.0,226593.0,11328.0
1679342893821769,186356.0,226575.0,11333.0
1679342893832769,186270.0,226529.0,11331.0
1679342893841769,186227.0,226526.0,11313.0
1679342893851769,186203.0,226502.0,11321.0
1679342893861769,186180.0,226509.0,11314.0
1679342893872769,186206.0,226511.0,11304.0
1679342893881769,186202.0,226500.0,11281.0
1679342893891769,186211.0,226507.0,11270.0
1679342893901769,186228.0,226507.0,11267.0
1679342893912768,186217.0,226509.0,11276.0
1679342893921769,186218.0,226491.0,11267.0
1679342893931769,186205.0,226458.0,11307.0
1679342893942768,186221.0,226458.0,11302.0
1679342893953769,186192.0,226478.0,11301.0
1679342893963769,186197.0,226485.0,11301.0
1679342893972769,186184.0,226503.0,11306.0
1679342893983769,186161.0,226501.0,11303.0
1679342893992769,186157.0,226489.0,11299.0
1679342894003769,186188.0,226497.0,11308.0
1679342894012769,186188.0,226468.0,11310.0
1679342894023769,186222.0,226521.0,11299.0
1679342894032769,186194.0,226502.0,11302.0
1679342894043769,186201.0,226526.0,11308.0
1679342894052769,186231.0,226490.0,11310.0
1679342894063768,186221.0,226536.0,11308.0
1679342894072769,186224.0,226545.0,11308.0
1679342894083768,186229.0,226493.0,11323.0
1679342894092769,186216.0,226466.0,11307.0
1679342894103768,186200.0,226515.0,11312.0
1679342894112769,186234.0,226470.0,11311.0
1679342894123768,186190.0,226489.0,11305.0
1679342894132769,186166.0,226526.0,11319.0
1679342894142769,186121.0,226503.0,11308.0
1679342894152769,186118.0,226486.0,11301.0
1679342894163769,186097.0,226494.0,11289.0
1679342894172769,186103.0,226403.0,11296.0
1679342894182769,186089.0,226446.0,11294.0
1679342894192769,186102.0,226424.0,11299.0
1679342894202769,186150.0,226480.0,11285.0
1679342894213769,186187.0,226480.0,11291.0
1679342894222769,186205.0,226507.0,11308.0
1679342894232769,186246.0,226475.0,11301.0
1679342894243769,186280.0,226490.0,11313.0
1679342894253769,186295.0,226499.0,11317.0
1679342894262769,186331.0,226554.0,11334.0
1679342894272769,186347.0,226537.0,11324.0
1679342894283769,186365.0,226535.0,11322.0
1679342894293769,186387.0,226582.0,11333.0
1679342894302769,186423.0,226579.0,11340.0
1679342894312769,186432.0,226589.0,11336.0
1679342894323769,186461.0,226633.0,11347.0
1679342894333769,186475.0,226621.0,11344.0
1679342894341769,186503.0,226604.0,11360.0
1679342894352769,186534.0,226652.0,11350.0
1679342894363768,186541.0,226690.0,11346.0
1679342894373768,186528.0,226665.0,11343.0
1679342894381768,186542.0,226673.0,11336.0
1679342894392768,186566.0,226662.0,11346.0
1679342894403768,186554.0,226644.0,11344.0
1679342894413768,186567.0,226667.0,11357.0
1679342894422768,186562.0,226654.0,11362.0
1679342894432768,186508.0,226633.0,11352.0
1679342894443768,186594.0,226668.0,11357.0
1679342894452768,186586.0,226656.0,11365.0
1679342894463768,186623.0,226633.0,11374.0
1679342894472768,186645.0,226671.0,11368.0
1679342894483768,186680.0,226668.0,11379.0
1679342894493769,186733.0,226667.0,11378.0
1679342894502769,186811.0,226705.0,11390.0
1679342894512769,186871.0,226723.0,11357.0
1679342894523769,186930.0,226764.0,11392.0
1679342894532769,186993.0,226713.0,11423.0
1679342894543769,187061.0,226744.0,11426.0
1679342894552769,187116.0,226778.0,11435.0
1679342894562769,187144.0,226828.0,11447.0
1679342894572769,187256.0,226810.0,11462.0
1679342894583769,187338.0,226831.0,11462.0
1679342894592769,187424.0,226915.0,11473.0
1679342894602769,187504.0,226931.0,11490.0
1679342894612769,187602.0,226966.0,11500.0
1679342894623769,187723.0,227023.0,11502.0
1679342894632769,187805.0,227020.0,11525.0
1679342894642769,187879.0,227051.0,11543.0
1679342894652769,187950.0,227100.0,11552.0
1679342894663769,188044.0,227153.0,11554.0
1679342894672769,188106.0,227171.0,11553.0
1679342894682769,188169.0,227191.0,11564.0
1679342894692769,188213.0,227156.0,11568.0
1679342894703769,188252.0,227208.0,11587.0
1679342894712769,188286.0,227235.0,11584.0
1679342894722769,188315.0,227228.0,11617.0
1679342894732769,188356.0,227297.0,11595.0
1679342894743769,188323.0,227196.0,11614.0
1679342894752769,188384.0,227185.0,11597.0
1679342894762769,188368.0,227233.0,11609.0
1679342894772769,188343.0,227227.0,11603.0
1679342894783769,188349.0,227221.0,11603.0
1679342894792769,188312.0,227206.0,11584.0
1679342894802769,188303.0,227216.0,11590.0
1679342894812769,188259.0,227231.0,11595.0
1679342894824769,188243.0,227258.0,11586.0
1679342894832769,188214.0,227263.0,11573.0
1679342894842769,188179.0,227266.0,11577.0
1679342894852769,188138.0,227245.0,11559.0
1679342894863769,188100.0,227252.0,11547.0
1679342894872769,188079.0,227193.0,11558.0
1679342894882769,188040.0,227187.0,11557.0
1679342894892769,188033.0,227211.0,11556.0
1679342894902769,187971.0,227205.0,11552.0
1679342894912769,187920.0,227194.0,11538.0
1679342894923769,187894.0,227178.0,11523.0
1679342894932769,187885.0,227153.0,11529.0
1679342894942769,187845.0,227127.0,11530.0
1679342894953769,187789.0,227160.0,11530.0
1679342894963769,187770.0,227132.0,11521.0
1679342894972769,187723.0,227108.0,11522.0
1679342894982769,187685.0,227087.0,11512.0
1679342894993769,187639.0,227075.0,11499.0
1679342895003769,187592.0,227063.0,11489.0
1679342895012769,187503.0,227071.0,11487.0
1679342895024769,187468.0,227019.0,11477.0
1679342895033769,187370.0,226993.0,11487.0
1679342895042769,187295.0,226941.0,11463.0
1679342895052769,187190.0,226929.0,11444.0
1679342895062769,187113.0,226880.0,11435.0
1679342895073769,187036.0,226823.0,11417.0
1679342895082769,186984.0,226789.0,11415.0
1679342895092769,186938.0,226813.0,11409.0
1679342895102769,186906.0,226877.0,11409.0
1679342895113769,186886.0,226850.0,11408.0
1679342895124769,186884.0,226823.0,11405.0
1679342895132768,186869.0,226813.0,11423.0
1679342895142768,186874.0,226876.0,11402.0
1679342895152768,186879.0,226900.0,11395.0
1679342895162768,186882.0,226861.0,11397.0
1679342895172768,186888.0,226936.0,11403.0
1679342895182768,186904.0,226935.0,11403.0
1679342895192768,186921.0,226916.0,11399.0
1679342895202768,186934.0,226906.0,11402.0
1679342895213769,186941.0,226978.0,11420.0
1679342895222769,186987.0,226942.0,11410.0
1679342895232769,186966.0,227012.0,11414.0
1679342895242769,186991.0,226991.0,11419.0
1679342895253769,187007.0,227034.0,11420.0
1679342895262769,187033.0,227037.0,11411.0
1679342895272769,187034.0,227031.0,11411.0
1679342895282769,187076.0,227083.0,11427.0
1679342895292769,187033.0,227084.0,11411.0
1679342895302769,187051.0,227103.0,11379.0
1679342895312769,187066.0,227098.0,11427.0
1679342895322769,187050.0,227127.0,11406.0
1679342895333769,187055.0,227105.0,11390.0
1679342895342769,187083.0,227128.0,11423.0
1679342895352769,187077.0,227158.0,11426.0
1679342895362769,187090.0,227106.0,11429.0
1679342895373769,187088.0,227143.0,11433.0
1679342895382769,187128.0,227159.0,11428.0
1679342895392769,187120.0,227163.0,11431.0
1679342895402769,187138.0,227166.0,11429.0
1679342895412769,187156.0,227178.0,11417.0
1679342895422769,187176.0,227206.0,11421.0
1679342895431769,187187.0,227200.0,11438.0
1679342895442769,187212.0,227216.0,11404.0
1679342895452769,187203.0,227209.0,11419.0
1679342895463769,187218.0,227245.0,11452.0
1679342895471768,187132.0,227224.0,11437.0
1679342895482768,187142.0,227222.0,11451.0
1679342895492768,187152.0,227208.0,11442.0
1679342895503768,187164.0,227232.0,11440.0
1679342895511768,187205.0,227253.0,11435.0
1679342895522768,187186.0,227245.0,11453.0
1679342895532768,187170.0,227248.0,11450.0
1679342895542768,187257.0,227234.0,11446.0
1679342895552768,187254.0,227259.0,11457.0
1679342895562768,187272.0,227280.0,11446.0
1679342895572769,187266.0,227265.0,11454.0
1679342895583769,187287.0,227296.0,11436.0
1679342895591769,187258.0,227267.0,11456.0
1679342895602769,187265.0,227277.0,11451.0
1679342895612769,187279.0,227291.0,11441.0
1679342895623768,187294.0,227296.0,11454.0
1679342895631768,187297.0,227337.0,11476.0
1679342895642768,187366.0,227299.0,11467.0
1679342895652768,187346.0,227279.0,11463.0
1679342895663768,187368.0,227268.0,11471.0
1679342895672768,187391.0,227329.0,11473.0
1679342895682768,187389.0,227280.0,11481.0
1679342895692768,187389.0,227275.0,11478.0
1679342895703768,187398.0,227299.0,11480.0
1679342895712768,187382.0,227289.0,11479.0
1679342895722768,187401.0,227280.0,11480.0
1679342895732768,187427.0,227313.0,11475.0
1679342895742768,187429.0,227315.0,11475.0
1679342895752769,187452.0,227333.0,11488.0
1679342895761769,187479.0,227325.0,11489.0
1679342895772769,187534.0,227364.0,11454.0
1679342895782769,187548.0,227331.0,11472.0
1679342895792769,187586.0,227329.0,11502.0
1679342895801769,187578.0,227372.0,11495.0
1679342895812769,187642.0,227367.0,11475.0
1679342895822769,187645.0,227385.0,11520.0
1679342895833768,187686.0,227394.0,11519.0
1679342895842769,187654.0,227355.0,11529.0
1679342895852769,187737.0,227437.0,11530.0
1679342895862769,187755.0,227413.0,11522.0
1679342895873768,187777.0,227414.0,11535.0
1679342895881768,187786.0,227416.0,11529.0
1679342895892768,187813.0,227454.0,11539.0
1679342895902768,187827.0,227427.0,11539.0
1679342895913768,187817.0,227405.0,11532.0
1679342895922768,187810.0,227387.0,11536.0
1679342895932769,187766.0,227392.0,11530.0
1679342895942769,187785.0,227389.0,11522.0
1679342895953769,187694.0,227351.0,11520.0
1679342895962769,187699.0,227285.0,11514.0
1679342895971769,187703.0,227326.0,11501.0
1679342895982769,187725.0,227334.0,11502.0
1679342895992769,187751.0,227325.0,11530.0
1679342896003769,187790.0,227397.0,11529.0
1679342896011768,187801.0,227387.0,11547.0
1679342896022768,187838.0,227389.0,11544.0
1679342896032768,187882.0,227431.0,11562.0
1679342896042768,187999.0,227463.0,11513.0
1679342896051768,188030.0,227446.0,11558.0
1679342896062768,188094.0,227452.0,11539.0
1679342896072768,188160.0,227480.0,11552.0
1679342896082768,188219.0,227488.0,11549.0
1679342896091768,188260.0,227519.0,11598.0
1679342896102768,188269.0,227524.0,11581.0
1679342896112769,188325.0,227543.0,11587.0
1679342896122769,188366.0,227566.0,11577.0
1679342896131769,188388.0,227578.0,11620.0
1679342896142769,188412.0,227603.0,11586.0
1679342896152769,188463.0,227593.0,11607.0
1679342896162769,188482.0,227617.0,11602.0
1679342896172769,188494.0,227602.0,11602.0
1679342896182769,188505.0,227596.0,11636.0
1679342896192769,188451.0,227591.0,11635.0
1679342896202769,188467.0,227605.0,11620.0
1679342896212769,188451.0,227599.0,11621.0
1679342896222769,188459.0,227593.0,11598.0
1679342896233769,188447.0,227591.0,11593.0
1679342896242769,188423.0,227593.0,11657.0
1679342896252769,188397.0,227571.0,11596.0
1679342896262769,188380.0,227537.0,11594.0
1679342896271769,188337.0,227545.0,11599.0
1679342896282769,188313.0,227533.0,11572.0
1679342896292769,188280.0,227532.0,11594.0
1679342896302769,188264.0,227513.0,11577.0
1679342896311769,188204.0,227496.0,11599.0
1679342896322769,188163.0,227487.0,11595.0
1679342896334769,188124.0,227471.0,11597.0
1679342896341769,188130.0,227480.0,11614.0
1679342896351769,188150.0,227480.0,11577.0
1679342896362769,188163.0,227493.0,11584.0
1679342896372769,188100.0,227496.0,11582.0
1679342896382769,188069.0,227470.0,11574.0
1679342896391769,188041.0,227402.0,11553.0
1679342896402769,188017.0,227405.0,11562.0
1679342896412769,187979.0,227426.0,11558.0
1679342896422769,187967.0,227392.0,11554.0
1679342896431769,187952.0,227421.0,11554.0
1679342896442769,187938.0,227421.0,11563.0
1679342896452769,187888.0,227429.0,11561.0
1679342896462769,187888.0,227398.0,11544.0
1679342896471769,187871.0,227399.0,11526.0
1679342896482769,187850.0,227406.0,11520.0
1679342896492769,187820.0,227402.0,11539.0
1679342896502769,187770.0,227397.0,11550.0
1679342896511769,187734.0,227375.0,11534.0
1679342896522769,187755.0,227381.0,11534.0
1679342896532769,187742.0,227362.0,11536.0
1679342896542769,187755.0,227384.0,11535.0
1679342896551769,187710.0,227366.0,11532.0
1679342896562769,187729.0,227367.0,11532.0
1679342896572769,187741.0,227383.0,11525.0
1679342896582769,187740.0,227413.0,11531.0
1679342896591769,187713.0,227410.0,11534.0
1679342896602769,187739.0,227386.0,11521.0
1679342896612769,187756.0,227378.0,11524.0
1679342896622769,187720.0,227398.0,11540.0
1679342896631769,187711.0,227384.0,11530.0
1679342896642768,187737.0,227391.0,11525.0
1679342896652769,187722.0,227356.0,11503.0
1679342896662769,187738.0,227374.0,11540.0
1679342896672769,187744.0,227400.0,11521.0
1679342896682769,187740.0,227373.0,11528.0
1679342896691769,187720.0,227379.0,11526.0
1679342896702769,187761.0,227388.0,11535.0
1679342896712769,187727.0,227379.0,11543.0
1679342896722769,187737.0,227366.0,11541.0
1679342896731769,187804.0,227384.0,11542.0
1679342896742769,187822.0,227404.0,11541.0
1679342896752769,187828.0,227390.0,11552.0
1679342896762769,187827.0,227387.0,11563.0
1679342896771769,187847.0,227390.0,11553.0
1679342896782769,187883.0,227419.0,11559.0
1679342896792769,187865.0,227398.0,11557.0
1679342896802769,187864.0,227406.0,11552.0
1679342896811769,187907.0,227417.0,11565.0
1679342896822769,187907.0,227419.0,11558.0
1679342896832769,187908.0,227392.0,11562.0
1679342896841769,187902.0,227391.0,11568.0
1679342896851769,187863.0,227378.0,11550.0
1679342896862769,187857.0,227342.0,11560.0
1679342896872769,187846.0,227345.0,11554.0
1679342896881769,187856.0,227338.0,11537.0
1679342896891769,187868.0,227333.0,11549.0
1679342896902769,187874.0,227275.0,11555.0
1679342896912769,187903.0,227272.0,11559.0
1679342896922769,187928.0,227301.0,11556.0
1679342896931769,187968.0,227356.0,11558.0
1679342896942769,187979.0,227372.0,11573.0
1679342896952769,188015.0,227405.0,11572.0
1679342896962769,188018.0,227393.0,11576.0
1679342896971769,188041.0,227412.0,11576.0
1679342896982769,188055.0,227425.0,11575.0
1679342896992769,188050.0,227412.0,11577.0
1679342897002769,188042.0,227447.0,11577.0
1679342897011769,188037.0,227433.0,11583.0
1679342897022769,188053.0,227445.0,11585.0
1679342897032769,188092.0,227407.0,11574.0
1679342897042769,188091.0,227428.0,11589.0
1679342897051769,188033.0,227472.0,11579.0
1679342897062769,188073.0,227444.0,11581.0
1679342897072769,188026.0,227429.0,11576.0
1679342897082769,187993.0,227368.0,11578.0
1679342897091769,188035.0,227413.0,11578.0
1679342897101769,188005.0,227405.0,11574.0
1679342897112769,187998.0,227387.0,11568.0
1679342897122769,188000.0,227385.0,11565.0
1679342897131769,187991.0,227380.0,11567.0
1679342897142768,187946.0,227391.0,11553.0
1679342897152768,187923.0,227308.0,11559.0
1679342897162768,187903.0,227308.0,11550.0
1679342897172768,187875.0,227310.0,11547.0
1679342897182768,187849.0,227339.0,11553.0
1679342897192769,187853.0,227345.0,11564.0
1679342897201769,187850.0,227297.0,11559.0
1679342897212769,187862.0,227322.0,11532.0
1679342897221769,187870.0,227328.0,11544.0
1679342897232769,187873.0,227334.0,11541.0
1679342897242769,187845.0,227333.0,11533.0
1679342897252769,187889.0,227364.0,11556.0
1679342897261769,187878.0,227345.0,11555.0
1679342897272769,187878.0,227365.0,11561.0
1679342897282769,187880.0,227360.0,11558.0
1679342897292769,187877.0,227347.0,11558.0
1679342897301769,187876.0,227343.0,11561.0
1679342897312769,187859.0,227365.0,11551.0
1679342897321769,187860.0,227305.0,11548.0
1679342897332769,187840.0,227361.0,11553.0
1679342897341769,187817.0,227347.0,11553.0
1679342897351769,187821.0,227355.0,11505.0
1679342897361769,187771.0,227335.0,11522.0
1679342897372769,187819.0,227349.0,11512.0
1679342897381769,187804.0,227353.0,11512.0
1679342897391769,187749.0,227361.0,11547.0
1679342897401769,187700.0,227321.0,11549.0
1679342897412769,187707.0,227315.0,11541.0
1679342897422769,187671.0,227309.0,11545.0
1679342897431769,187661.0,227299.0,11520.0
1679342897442769,187598.0,227306.0,11530.0
1679342897452769,187553.0,227316.0,11512.0
1679342897462769,187566.0,227239.0,11504.0
1679342897471769,187531.0,227274.0,11503.0
1679342897481769,187468.0,227248.0,11506.0
1679342897492769,187417.0,227243.0,11504.0
1679342897502769,187372.0,227216.0,11496.0
1679342897511769,187384.0,227210.0,11499.0
1679342897521769,187346.0,227203.0,11467.0
1679342897532769,187342.0,227200.0,11470.0
1679342897543769,187300.0,227185.0,11453.0
1679342897551769,187290.0,227185.0,11461.0
1679342897561769,187233.0,227145.0,11477.0
1679342897572769,187204.0,227135.0,11444.0
1679342897581769,187164.0,227131.0,11463.0
1679342897591769,187130.0,227121.0,11444.0
1679342897601769,187102.0,227096.0,11419.0
1679342897612769,187094.0,227084.0,11436.0
1679342897621769,187059.0,227102.0,11451.0
1679342897631769,186986.0,227079.0,11438.0
1679342897641769,186981.0,227069.0,11410.0
1679342897651769,186981.0,227066.0,11430.0
1679342897662768,186943.0,227037.0,11417.0
1679342897672768,186898.0,227042.0,11429.0
1679342897682768,186863.0,227019.0,11426.0
1679342897691769,186833.0,226995.0,11417.0
1679342897702768,186798.0,226978.0,11424.0
1679342897712768,186760.0,226942.0,11410.0
1679342897721768,186697.0,226907.0,11400.0
1679342897731769,186628.0,226899.0,11380.0
1679342897741769,186528.0,226829.0,11381.0
1679342897752769,186491.0,226842.0,11360.0
1679342897761769,186410.0,226789.0,11356.0
1679342897771769,186346.0,226759.0,11344.0
1679342897782769,186315.0,226788.0,11352.0
1679342897792769,186289.0,226785.0,11335.0
1679342897801769,186255.0,226816.0,11324.0
1679342897811769,186257.0,226769.0,11321.0
1679342897821769,186240.0,226760.0,11329.0
1679342897832769,186230.0,226818.0,11287.0
1679342897841769,186212.0,226761.0,11312.0
1679342897851769,186213.0,226768.0,11317.0
1679342897862769,186201.0,226747.0,11331.0
1679342897872769,186196.0,226785.0,11327.0
1679342897881769,186192.0,226737.0,11333.0
1679342897891769,186186.0,226761.0,11326.0
1679342897902768,186175.0,226796.0,11321.0
1679342897912769,186179.0,226751.0,11328.0
1679342897921769,186185.0,226767.0,11339.0
1679342897931769,186207.0,226797.0,11290.0
1679342897941769,186211.0,226793.0,11322.0
1679342897952769,186220.0,226814.0,11306.0
1679342897962769,186211.0,226786.0,11338.0
1679342897971769,186211.0,226751.0,11336.0
1679342897981769,186201.0,226860.0,11341.0
1679342897992769,186202.0,226815.0,11303.0
1679342898001769,186171.0,226818.0,11295.0
1679342898011769,186201.0,226806.0,11289.0
1679342898021769,186185.0,226803.0,11309.0
1679342898032769,186169.0,226795.0,11325.0
1679342898041769,186151.0,226820.0,11285.0
1679342898051769,186161.0,226793.0,11301.0
1679342898062769,186162.0,226778.0,11329.0
1679342898071769,186167.0,226796.0,11322.0
1679342898082769,186201.0,226789.0,11324.0
1679342898091769,186194.0,226790.0,11331.0
1679342898101769,186197.0,226804.0,11336.0
1679342898111769,186221.0,226804.0,11301.0
1679342898121769,186234.0,226804.0,11311.0
1679342898131769,186271.0,226806.0,11293.0
1679342898141769,186277.0,226809.0,11325.0
1679342898152768,186291.0,226826.0,11326.0
1679342898161769,186325.0,226813.0,11369.0
1679342898172768,186343.0,226857.0,11346.0
1679342898181769,186314.0,226836.0,11354.0
1679342898192768,186331.0,226854.0,11351.0
1679342898201769,186387.0,226860.0,11353.0
1679342898212768,186400.0,226871.0,11347.0
1679342898221768,186363.0,226865.0,11363.0
1679342898231768,186395.0,226866.0,11358.0
1679342898241768,186367.0,226850.0,11372.0
1679342898252768,186356.0,226844.0,11369.0
1679342898261768,186405.0,226833.0,11369.0
1679342898271769,186435.0,226847.0,11333.0
1679342898281769,186438.0,226858.0,11331.0
1679342898292769,186434.0,226886.0,11378.0
1679342898301769,186440.0,226919.0,11376.0
1679342898311769,186511.0,226894.0,11374.0
1679342898321769,186588.0,226860.0,11386.0
1679342898331769,186624.0,226906.0,11386.0
1679342898341769,186687.0,226897.0,11368.0
1679342898351769,186743.0,226940.0,11393.0
1679342898361769,186837.0,226980.0,11404.0
1679342898372769,186866.0,226927.0,11426.0
1679342898381769,186913.0,226954.0,11426.0
1679342898391769,186959.0,227022.0,11428.0
1679342898401769,187018.0,226982.0,11453.0
1679342898412768,187065.0,227084.0,11455.0
1679342898422768,187113.0,227052.0,11446.0
1679342898431769,187134.0,227068.0,11449.0
1679342898441769,187184.0,227042.0,11475.0
1679342898452769,187228.0,227090.0,11458.0
1679342898461769,187326.0,227097.0,11470.0
1679342898471769,187318.0,227113.0,11481.0
1679342898481769,187310.0,227132.0,11496.0
1679342898492769,187377.0,227152.0,11484.0
1679342898502769,187418.0,227099.0,11499.0
1679342898511769,187438.0,227105.0,11500.0
1679342898521769,187453.0,227100.0,11477.0
1679342898531769,187493.0,227132.0,11481.0
1679342898542769,187507.0,227155.0,11498.0
1679342898551769,187503.0,227154.0,11465.0
1679342898561769,187484.0,227188.0,11495.0
1679342898572769,187429.0,227107.0,11505.0
1679342898581769,187384.0,227077.0,11501.0
1679342898591769,187333.0,227022.0,11490.0
1679342898601769,187305.0,227007.0,11470.0
1679342898612769,187257.0,227009.0,11461.0
1679342898621769,187232.0,226971.0,11465.0
1679342898631769,187218.0,227014.0,11465.0
1679342898641769,187194.0,226945.0,11464.0
1679342898652769,187221.0,227016.0,11467.0
1679342898661769,187232.0,227023.0,11463.0
1679342898672769,187190.0,227029.0,11471.0
1679342898681769,187192.0,226965.0,11463.0
1679342898691769,187195.0,227007.0,11465.0
1679342898702769,187205.0,227026.0,11472.0
1679342898711769,187200.0,227047.0,11452.0
1679342898721769,187178.0,227025.0,11445.0
1679342898731769,187211.0,227018.0,11463.0
1679342898741769,187200.0,227039.0,11442.0
1679342898752769,187225.0,227047.0,11460.0
1679342898761769,187247.0,227070.0,11476.0
1679342898771769,187216.0,227023.0,11483.0
1679342898781769,187231.0,227011.0,11474.0
1679342898792769,187244.0,227012.0,11477.0
1679342898801769,187247.0,227007.0,11479.0
1679342898811769,187248.0,227030.0,11466.0
1679342898821769,187242.0,227042.0,11478.0
1679342898832769,187249.0,227046.0,11484.0
1679342898841769,187269.0,227007.0,11480.0
1679342898852769,187266.0,227033.0,11490.0
1679342898861769,187268.0,227057.0,11475.0
1679342898872769,187281.0,227058.0,11469.0
1679342898881769,187284.0,226995.0,11493.0
1679342898891769,187314.0,227023.0,11490.0
1679342898901769,187336.0,226983.0,11487.0
1679342898912768,187330.0,227013.0,11497.0
1679342898922768,187381.0,227021.0,11498.0
1679342898931769,187396.0,227024.0,11491.0
1679342898941769,187438.0,227032.0,11508.0
1679342898953769,187448.0,227070.0,11515.0
1679342898961768,187484.0,227042.0,11508.0
1679342898971768,187487.0,227126.0,11516.0
1679342898981768,187502.0,227143.0,11525.0
1679342898992769,187521.0,227186.0,11533.0
1679342899001769,187559.0,227153.0,11534.0
1679342899011769,187620.0,227170.0,11532.0
1679342899021769,187648.0,227212.0,11533.0
1679342899031769,187670.0,227195.0,11544.0
1679342899041769,187703.0,227188.0,11540.0
1679342899053769,187730.0,227216.0,11540.0
1679342899061769,187716.0,227202.0,11560.0
1679342899071769,187738.0,227216.0,11556.0
1679342899081769,187767.0,227209.0,11564.0
1679342899091769,187812.0,227232.0,11553.0
1679342899101769,187825.0,227241.0,11561.0
1679342899111769,187852.0,227238.0,11572.0
1679342899121769,187881.0,227252.0,11577.0
1679342899131769,187931.0,227272.0,11584.0
1679342899141769,187940.0,227269.0,11591.0
1679342899151769,187989.0,227303.0,11575.0
1679342899161769,188017.0,227289.0,11592.0
1679342899172769,188097.0,227290.0,11569.0
1679342899180769,188117.0,227285.0,11600.0
1679342899191769,188131.0,227311.0,11607.0
1679342899201769,188111.0,227308.0,11621.0
1679342899212768,188167.0,227343.0,11606.0
1679342899221768,188238.0,227288.0,11624.0
1679342899231768,188277.0,227356.0,11626.0
1679342899241768,188322.0,227297.0,11631.0
1679342899252768,188347.0,227350.0,11640.0
1679342899261768,188376.0,227343.0,11638.0
1679342899271768,188388.0,227311.0,11646.0
1679342899281768,188411.0,227320.0,11644.0
1679342899292768,188434.0,227365.0,11645.0
1679342899301768,188471.0,227335.0,11656.0
1679342899311768,188495.0,227359.0,11649.0
1679342899321768,188510.0,227361.0,11649.0
1679342899332768,188510.0,227392.0,11653.0
1679342899340768,188515.0,227391.0,11649.0
1679342899351769,188503.0,227431.0,11646.0
1679342899361769,188491.0,227384.0,11663.0
1679342899372769,188477.0,227391.0,11663.0
1679342899380768,188468.0,227352.0,11646.0
1679342899391768,188454.0,227345.0,11654.0
1679342899401768,188464.0,227284.0,11650.0
1679342899411768,188494.0,227310.0,11642.0
1679342899421768,188510.0,227279.0,11653.0
1679342899431768,188552.0,227349.0,11679.0
1679342899441768,188598.0,227365.0,11678.0
1679342899451768,188653.0,227393.0,11656.0
1679342899461768,188691.0,227393.0,11674.0
1679342899471768,188715.0,227394.0,11689.0
1679342899481768,188738.0,227393.0,11697.0
1679342899491768,188768.0,227416.0,11693.0
1679342899501768,188754.0,227444.0,11694.0
1679342899511768,188775.0,227491.0,11691.0
1679342899521768,188764.0,227419.0,11697.0
1679342899532769,188776.0,227470.0,11705.0
1679342899541769,188772.0,227469.0,11690.0
1679342899551769,188778.0,227456.0,11706.0
1679342899561769,188770.0,227421.0,11700.0
1679342899571769,188752.0,227425.0,11702.0
1679342899581769,188746.0,227405.0,11695.0
1679342899591769,188733.0,227409.0,11681.0
1679342899601769,188691.0,227325.0,11686.0
1679342899611769,188677.0,227426.0,11691.0
1679342899621769,188668.0,227397.0,11678.0
1679342899631769,188635.0,227308.0,11680.0
1679342899641769,188625.0,227404.0,11680.0
1679342899651769,188559.0,227397.0,11670.0
1679342899661769,188565.0,227356.0,11665.0
1679342899672769,188539.0,227399.0,11655.0
1679342899681769,188478.0,227372.0,11656.0
1679342899691769,188452.0,227334.0,11646.0
1679342899701769,188437.0,227290.0,11639.0
1679342899712769,188408.0,227326.0,11639.0
1679342899721769,188393.0,227302.0,11656.0
1679342899731769,188371.0,227327.0,11646.0
1679342899741769,188348.0,227322.0,11639.0
1679342899752769,188320.0,227323.0,11639.0
1679342899760769,188303.0,227292.0,11634.0
1679342899770769,188274.0,227316.0,11598.0
1679342899781768,188241.0,227184.0,11593.0
1679342899791768,188241.0,227297.0,11609.0
1679342899801768,188215.0,227288.0,11600.0
1679342899811768,188180.0,227269.0,11604.0
1679342899821768,188158.0,227280.0,11601.0
1679342899832768,188130.0,227273.0,11606.0
1679342899840768,188099.0,227275.0,11603.0
1679342899851768,188058.0,227242.0,11604.0
1679342899861768,188034.0,227179.0,11600.0
1679342899871768,188020.0,227241.0,11559.0
1679342899880768,187977.0,227247.0,11584.0
1679342899891769,187958.0,227231.0,11587.0
1679342899901769,187910.0,227235.0,11593.0
1679342899911769,187919.0,227232.0,11578.0
1679342899921769,187914.0,227213.0,11582.0
1679342899931769,187900.0,227179.0,11572.0
1679342899941769,187898.0,227202.0,11581.0
1679342899951769,187870.0,227223.0,11574.0
1679342899961769,187861.0,227214.0,11569.0
1679342899971769,187831.0,227230.0,11534.0
1679342899981769,187797.0,227211.0,11573.0
1679342899991769,187808.0,227214.0,11573.0
1679342900001769,187776.0,227220.0,11572.0
1679342900011769,187785.0,227221.0,11576.0
1679342900020769,187779.0,227228.0,11567.0
1679342900031769,187782.0,227230.0,11567.0
1679342900041769,187773.0,227237.0,11574.0
1679342900051769,187815.0,227238.0,11573.0
1679342900062769,187786.0,227240.0,11567.0
1679342900071769,187790.0,227231.0,11603.0
1679342900081769,187813.0,227212.0,11551.0
1679342900090769,187792.0,227223.0,11537.0
1679342900100769,187757.0,227195.0,11543.0
1679342900111769,187697.0,227175.0,11564.0
1679342900121769,187643.0,227152.0,11531.0
1679342900131769,187566.0,227130.0,11528.0
1679342900140769,187507.0,227119.0,11523.0
1679342900151769,187501.0,227102.0,11519.0
1679342900163769,187480.0,227065.0,11527.0
1679342900171769,187491.0,227111.0,11559.0
1679342900180769,187449.0,227093.0,11509.0
1679342900191769,187508.0,227102.0,11491.0
1679342900201769,187503.0,227105.0,11494.0
1679342900211768,187507.0,227091.0,11507.0
1679342900220769,187517.0,227118.0,11515.0
1679342900231768,187532.0,227111.0,11485.0
1679342900241768,187527.0,227117.0,11499.0
1679342900251769,187542.0,227126.0,11504.0
1679342900260769,187549.0,227107.0,11505.0
1679342900271769,187539.0,227173.0,11521.0
1679342900281769,187581.0,227164.0,11524.0
1679342900291769,187600.0,227169.0,11523.0
1679342900300769,187603.0,227189.0,11519.0
1679342900311769,187629.0,227206.0,11507.0
1679342900321769,187644.0,227166.0,11540.0
1679342900331769,187628.0,227220.0,11540.0
1679342900340769,187615.0,227211.0,11551.0
1679342900351769,187617.0,227233.0,11531.0
1679342900361769,187638.0,227205.0,11528.0
1679342900371769,187634.0,227206.0,11533.0
1679342900380769,187617.0,227193.0,11516.0
1679342900391769,187624.0,227195.0,11513.0
1679342900400769,187617.0,227165.0,11523.0
1679342900411769,187600.0,227139.0,11529.0
1679342900421769,187564.0,227178.0,11516.0
1679342900431769,187582.0,227164.0,11497.0
1679342900441769,187556.0,227164.0,11531.0
1679342900451769,187556.0,227181.0,11525.0
1679342900461769,187559.0,227157.0,11525.0
1679342900471769,187570.0,227181.0,11531.0
1679342900480769,187556.0,227175.0,11539.0
1679342900490769,187555.0,227186.0,11541.0
1679342900501769,187579.0,227222.0,11501.0
1679342900510769,187641.0,227160.0,11523.0
1679342900521769,187654.0,227170.0,11529.0
1679342900530769,187662.0,227183.0,11523.0
1679342900541769,187691.0,227169.0,11532.0
1679342900550769,187696.0,227169.0,11553.0
1679342900561769,187716.0,227171.0,11518.0
1679342900571769,187747.0,227186.0,11541.0
1679342900581769,187774.0,227129.0,11573.0
1679342900591769,187799.0,227168.0,11564.0
1679342900600769,187811.0,227166.0,11565.0
1679342900611769,187830.0,227207.0,11592.0
1679342900621769,187860.0,227225.0,11571.0
1679342900631769,187863.0,227206.0,11587.0
1679342900640769,187884.0,227164.0,11586.0
1679342900651769,187887.0,227198.0,11596.0
1679342900661769,187908.0,227171.0,11580.0
1679342900672769,187922.0,227180.0,11585.0
1679342900680769,187915.0,227258.0,11581.0
1679342900691769,187925.0,227233.0,11590.0
1679342900701769,187931.0,227229.0,11594.0
1679342900711768,187942.0,227198.0,11594.0
1679342900720769,187943.0,227165.0,11581.0
1679342900731768,187941.0,227215.0,11593.0
1679342900741768,187953.0,227228.0,11581.0
1679342900751768,187966.0,227242.0,11585.0
1679342900760769,187985.0,227229.0,11597.0
1679342900771768,187994.0,227279.0,11579.0
1679342900780768,187968.0,227266.0,11598.0
1679342900791769,187994.0,227254.0,11609.0
1679342900800769,187970.0,227248.0,11602.0
1679342900811769,188019.0,227199.0,11596.0
1679342900821769,188005.0,227207.0,11604.0
1679342900831769,187989.0,227235.0,11604.0
1679342900840769,187964.0,227158.0,11593.0
1679342900851769,187938.0,227131.0,11579.0
1679342900861769,187913.0,227116.0,11584.0
1679342900871769,187899.0,227145.0,11587.0
1679342900880769,187890.0,227179.0,11593.0
1679342900891769,187892.0,227198.0,11595.0
1679342900900769,187921.0,227175.0,11599.0
1679342900911769,187983.0,227176.0,11585.0
1679342900921769,188020.0,227210.0,11607.0
1679342900930769,188085.0,227240.0,11579.0
1679342900940769,188120.0,227239.0,11592.0
1679342900951769,188150.0,227244.0,11605.0
1679342900961768,188125.0,227261.0,11602.0
1679342900970769,188198.0,227281.0,11589.0
1679342900980769,188222.0,227276.0,11638.0
1679342900991769,188245.0,227305.0,11612.0
1679342901001769,188263.0,227294.0,11622.0
1679342901010769,188283.0,227304.0,11608.0
1679342901020769,188240.0,227360.0,11648.0
1679342901031769,188272.0,227327.0,11647.0
1679342901041769,188257.0,227353.0,11637.0
1679342901051769,188302.0,227299.0,11647.0
1679342901060769,188291.0,227309.0,11630.0
1679342901071769,188267.0,227349.0,11637.0
1679342901081769,188277.0,227331.0,11629.0
1679342901090769,188250.0,227326.0,11627.0
1679342901100769,188214.0,227321.0,11617.0
1679342901111769,188188.0,227305.0,11630.0
1679342901121769,188123.0,227287.0,11625.0
1679342901130769,188127.0,227275.0,11633.0
1679342901140769,188146.0,227264.0,11619.0
1679342901151769,188119.0,227292.0,11617.0
1679342901161769,188071.0,227249.0,11615.0
1679342901171769,188105.0,227226.0,11615.0
1679342901180769,188133.0,227243.0,11599.0
1679342901191769,188074.0,227274.0,11587.0
1679342901201769,188079.0,227228.0,11614.0
1679342901211769,188068.0,227253.0,11618.0
1679342901220769,188063.0,227260.0,11604.0
1679342901231769,188035.0,227220.0,11599.0
1679342901241769,188047.0,227229.0,11605.0
1679342901251769,188042.0,227217.0,11610.0
1679342901260769,188034.0,227215.0,11606.0
1679342901271769,188032.0,227181.0,11609.0
1679342901280769,188049.0,227286.0,11597.0
1679342901291769,188046.0,227268.0,11599.0
1679342901300769,187998.0,227274.0,11613.0
1679342901311769,187994.0,227257.0,11608.0
1679342901320769,188020.0,227239.0,11604.0
1679342901331769,188026.0,227261.0,11594.0
1679342901340769,188020.0,227262.0,11599.0
1679342901351769,188013.0,227212.0,11607.0
1679342901361769,188022.0,227202.0,11608.0
1679342901371769,188024.0,227210.0,11616.0
1679342901380769,188051.0,227277.0,11600.0
1679342901390769,188043.0,227216.0,11596.0
1679342901401769,188044.0,227193.0,11583.0
1679342901410769,188068.0,227224.0,11604.0
1679342901421769,188091.0,227242.0,11604.0
1679342901431769,188096.0,227245.0,11611.0
1679342901440769,188123.0,227251.0,11616.0
1679342901451769,188120.0,227252.0,11617.0
1679342901461768,188154.0,227227.0,11621.0
1679342901472768,188152.0,227284.0,11623.0
1679342901480768,188167.0,227251.0,11613.0
1679342901491768,188141.0,227275.0,11626.0
1679342901501768,188157.0,227271.0,11614.0
1679342901510769,188138.0,227260.0,11624.0
1679342901521769,188128.0,227219.0,11561.0
1679342901530769,188040.0,227232.0,11613.0
1679342901541769,187985.0,227220.0,11609.0
1679342901550769,187935.0,227177.0,11605.0
1679342901560769,187930.0,227164.0,11581.0
1679342901572769,187906.0,227143.0,11558.0
1679342901581769,187910.0,227129.0,11597.0
1679342901590769,187873.0,227152.0,11580.0
1679342901601769,187834.0,227145.0,11583.0
1679342901610769,187815.0,227135.0,11583.0
